19.965535	79
19.979795	63
19.994055	74
20.008316	65
20.022576	73
20.036836	64
20.051096	65
20.065357	66
20.079617	68
20.093877	61
20.108137	77
20.122398	69
20.136658	63
20.150918	75
20.165179	69
20.179439	92
20.193699	59
20.207959	53
20.22222	80
20.23648	68
20.25074	57
20.265	48
20.279261	58
20.293521	67
20.307781	81
20.322041	60
20.336302	66
20.350562	80
20.364822	63
20.379083	76
20.393343	69
20.407603	84
20.421863	67
20.436124	66
20.450384	58
20.464644	64
20.478904	81
20.493165	71
20.507425	70
20.521685	84
20.535946	56
20.550206	69
20.564466	65
20.578726	62
20.592987	68
20.607247	54
20.621507	64
20.635768	73
20.650028	72
20.664288	59
20.678548	62
20.692809	72
20.707069	75
20.721329	75
20.73559	69
20.74985	83
20.76411	61
20.77837	64
20.792631	74
20.806891	71
20.821151	63
20.835412	63
20.849672	60
20.863932	72
20.878192	69
20.892453	59
20.906713	65
20.920973	78
20.935234	66
20.949494	75
20.963754	79
20.978014	64
20.992275	85
21.006535	68
21.020795	62
21.035056	72
21.049316	68
21.063576	80
21.077837	67
21.092097	66
21.106357	69
21.120617	72
21.134878	60
21.149138	58
21.163398	70
21.177659	62
21.191919	83
21.206179	54
21.22044	71
21.2347	58
21.24896	82
21.26322	73
21.277481	71
21.291741	58
21.306001	56
21.320262	58
21.334522	59
21.348782	58
21.363043	75
21.377303	56
21.391563	76
21.405823	66
21.420084	61
21.434344	64
21.448604	49
21.462865	82
21.477125	75
21.491385	53
21.505646	73
21.519906	60
21.534166	81
21.548427	65
21.562687	75
21.576947	61
21.591208	54
21.605468	61
21.619728	53
21.633989	67
21.648249	75
21.662509	76
21.676769	72
21.69103	61
21.70529	57
21.71955	58
21.733811	67
21.748071	66
21.762331	61
21.776592	61
21.790852	60
21.805112	68
21.819373	54
21.833633	54
21.847893	64
21.862154	76
21.876414	78
21.890674	62
21.904935	61
21.919195	58
21.933455	66
21.947716	77
21.961976	63
21.976236	61
21.990497	60
22.004757	69
22.019017	62
22.033278	68
22.047538	48
22.061798	74
22.076059	68
22.090319	60
22.104579	67
22.11884	67
22.1331	54
22.14736	69
22.161621	66
22.175881	66
22.190141	68
22.204402	73
22.218662	55
22.232922	61
22.247183	77
22.261443	64
22.275703	72
22.289964	64
22.304224	78
22.318484	67
22.332745	53
22.347005	81
22.361265	77
22.375526	61
22.389786	70
22.404047	58
22.418307	47
22.432567	68
22.446828	38
22.461088	54
22.475348	57
22.489609	57
22.503869	76
22.518129	61
22.53239	54
22.54665	58
22.56091	77
22.575171	58
22.589431	74
22.603691	75
22.617952	66
22.632212	82
22.646472	67
22.660733	47
22.674993	62
22.689254	56
22.703514	60
22.717774	60
22.732035	71
22.746295	74
22.760555	65
22.774816	62
22.789076	72
22.803336	66
22.817597	72
22.831857	74
22.846118	72
22.860378	68
22.874638	73
22.888899	66
22.903159	74
22.917419	79
22.93168	62
22.94594	75
22.9602	58
22.974461	63
22.988721	48
23.002982	50
23.017242	58
23.031502	70
23.045763	66
23.060023	70
23.074283	69
23.088544	66
23.102804	70
23.117065	61
23.131325	60
23.145585	66
23.159846	54
23.174106	86
23.188366	64
23.202627	69
23.216887	66
23.231148	59
23.245408	48
23.259668	79
23.273929	71
23.288189	79
23.302449	55
23.31671	69
23.33097	67
23.345231	56
23.359491	56
23.373751	86
23.388012	58
23.402272	70
23.416533	52
23.430793	61
23.445053	67
23.459314	50
23.473574	66
23.487834	83
23.502095	64
23.516355	57
23.530616	65
23.544876	74
23.559136	67
23.573397	75
23.587657	49
23.601918	55
23.616178	61
23.630438	55
23.644699	68
23.658959	63
23.67322	63
23.68748	53
23.70174	65
23.716001	71
23.730261	61
23.744521	58
23.758782	58
23.773042	71
23.787303	83
23.801563	61
23.815823	77
23.830084	60
23.844344	65
23.858605	68
23.872865	72
23.887125	60
23.901386	60
23.915646	78
23.929907	73
23.944167	68
23.958428	79
23.972688	69
23.986948	92
24.001209	75
24.015469	60
24.02973	76
24.04399	66
24.05825	79
24.072511	75
24.086771	75
24.101032	60
24.115292	98
24.129552	72
24.143813	76
24.158073	76
24.172334	70
24.186594	83
24.200854	86
24.215115	75
24.229375	67
24.243636	58
24.257896	52
24.272157	81
24.286417	83
24.300677	88
24.314938	86
24.329198	83
24.343459	61
24.357719	81
24.371979	93
24.38624	96
24.4005	81
24.414761	79
24.429021	92
24.443282	86
24.457542	93
24.471802	110
24.486063	89
24.500323	86
24.514584	95
24.528844	104
24.543105	97
24.557365	94
24.571625	111
24.585886	77
24.600146	113
24.614407	117
24.628667	110
24.642928	109
24.657188	117
24.671448	106
24.685709	98
24.699969	126
24.71423	136
24.72849	106
24.742751	131
24.757011	143
24.771271	137
24.785532	131
24.799792	152
24.814053	149
24.828313	171
24.842574	169
24.856834	179
24.871095	189
24.885355	187
24.899615	201
24.913876	202
24.928136	228
24.942397	252
24.956657	295
24.970918	288
24.985178	290
24.999439	351
25.013699	372
25.027959	402
25.04222	411
25.05648	445
25.070741	479
25.085001	549
25.099262	534
25.113522	585
25.127783	578
25.142043	652
25.156303	720
25.170564	725
25.184824	722
25.199085	792
25.213345	795
25.227606	820
25.241866	835
25.256127	848
25.270387	844
25.284647	834
25.298908	849
25.313168	802
25.327429	751
25.341689	753
25.35595	685
25.37021	700
25.384471	616
25.398731	587
25.412992	578
25.427252	494
25.441513	459
25.455773	464
25.470033	366
25.484294	356
25.498554	359
25.512815	348
25.527075	304
25.541336	282
25.555596	292
25.569857	248
25.584117	274
25.598378	206
25.612638	218
25.626899	204
25.641159	167
25.655419	176
25.66968	153
25.68394	170
25.698201	153
25.712461	148
25.726722	166
25.740982	147
25.755243	130
25.769503	129
25.783764	144
25.798024	125
25.812285	122
25.826545	111
25.840806	125
25.855066	119
25.869327	127
25.883587	97
25.897848	110
25.912108	110
25.926368	87
25.940629	102
25.954889	101
25.96915	112
25.98341	92
25.997671	119
26.011931	92
26.026192	85
26.040452	81
26.054713	76
26.068973	89
26.083234	73
26.097494	75
26.111755	79
26.126015	72
26.140276	75
26.154536	79
26.168797	78
26.183057	86
26.197318	74
26.211578	71
26.225839	79
26.240099	88
26.25436	83
26.26862	85
26.282881	82
26.297141	93
26.311402	75
26.325662	76
26.339923	73
26.354183	85
26.368444	69
26.382704	62
26.396965	85
26.411225	68
26.425486	77
26.439746	71
26.454007	82
26.468267	76
26.482528	67
26.496788	71
26.511049	61
26.525309	60
26.53957	79
26.55383	87
26.568091	71
26.582351	82
26.596612	66
26.610872	73
26.625133	71
26.639393	77
26.653654	74
26.667914	65
26.682175	61
26.696435	52
26.710696	72
26.724956	67
26.739217	72
26.753477	70
26.767738	66
26.781998	75
26.796259	78
26.810519	67
26.82478	79
26.83904	68
26.853301	66
26.867561	68
26.881822	55
26.896082	71
26.910343	67
26.924603	64
26.938864	52
26.953124	84
26.967385	58
26.981645	65
26.995906	77
27.010166	75
27.024427	85
27.038687	81
27.052948	94
27.067208	89
27.081469	63
27.095729	70
27.10999	72
27.124251	81
27.138511	75
27.152772	88
27.167032	77
27.181293	98
27.195553	118
27.209814	108
27.224074	100
27.238335	126
27.252595	109
27.266856	120
27.281116	124
27.295377	141
27.309637	138
27.323898	150
27.338158	144
27.352419	133
27.366679	155
27.38094	148
27.395201	161
27.409461	163
27.423722	152
27.437982	135
27.452243	135
27.466503	127
27.480764	128
27.495024	125
27.509285	106
27.523545	113
27.537806	96
27.552066	96
27.566327	88
27.580587	91
27.594848	78
27.609109	87
27.623369	83
27.63763	85
27.65189	71
27.666151	70
27.680411	73
27.694672	65
27.708932	63
27.723193	52
27.737453	69
27.751714	55
27.765975	66
27.780235	61
27.794496	65
27.808756	56
27.823017	49
27.837277	68
27.851538	48
27.865798	53
27.880059	50
27.894319	56
27.90858	53
27.922841	64
27.937101	72
27.951362	52
27.965622	51
27.979883	57
27.994143	67
28.008404	50
28.022664	58
28.036925	61
28.051186	65
28.065446	66
28.079707	69
28.093967	62
28.108228	56
28.122488	61
28.136749	39
28.151009	52
28.16527	53
28.179531	56
28.193791	50
28.208052	60
28.222312	61
28.236573	56
28.250833	52
28.265094	60
28.279355	42
28.293615	67
28.307876	64
28.322136	47
28.336397	58
28.350657	61
28.364918	53
28.379179	66
28.393439	49
28.4077	53
28.42196	55
28.436221	57
28.450481	61
28.464742	65
28.479003	49
28.493263	57
28.507524	52
28.521784	51
28.536045	60
28.550305	51
28.564566	69
28.578827	46
28.593087	60
28.607348	59
28.621608	55
28.635869	52
28.650129	36
28.66439	38
28.678651	49
28.692911	51
28.707172	64
28.721432	40
28.735693	41
28.749953	50
28.764214	54
28.778475	29
28.792735	44
28.806996	64
28.821256	59
28.835517	55
28.849778	52
28.864038	46
28.878299	56
28.892559	52
28.90682	45
28.921081	50
28.935341	51
28.949602	66
28.963862	47
28.978123	47
28.992383	58
29.006644	55
29.020905	50
29.035165	50
29.049426	37
29.063686	52
29.077947	61
29.092208	42
29.106468	56
29.120729	47
29.134989	50
29.14925	43
29.163511	46
29.177771	54
29.192032	55
29.206292	46
29.220553	61
29.234814	42
29.249074	55
29.263335	58
29.277595	39
29.291856	44
29.306117	45
29.320377	46
29.334638	43
29.348898	50
29.363159	34
29.37742	49
29.39168	48
29.405941	35
29.420201	55
29.434462	41
29.448723	45
29.462983	39
29.477244	39
29.491504	57
29.505765	40
29.520026	59
29.534286	39
29.548547	56
29.562808	55
29.577068	47
29.591329	49
29.605589	49
29.61985	42
29.634111	49
29.648371	44
29.662632	46
29.676892	42
29.691153	33
29.705414	67
29.719674	46
29.733935	41
29.748196	59
29.762456	43
29.776717	52
29.790977	54
29.805238	44
29.819499	54
29.833759	49
29.84802	47
29.862281	41
29.876541	38
29.890802	37
29.905062	42
29.919323	41
29.933584	48
29.947844	46
29.962105	48
29.976366	49
29.990626	45
30.004887	39
30.019147	40
30.033408	48
30.047669	54
30.061929	52
30.07619	42
30.090451	35
30.104711	48
30.118972	52
30.133232	38
30.147493	41
30.161754	51
30.176014	51
30.190275	40
30.204536	51
30.218796	52
30.233057	47
30.247318	40
30.261578	39
30.275839	55
30.290099	50
30.30436	63
30.318621	40
30.332881	53
30.347142	38
30.361403	50
30.375663	43
30.389924	46
30.404185	36
30.418445	41
30.432706	40
30.446967	54
30.461227	48
30.475488	43
30.489748	54
30.504009	52
30.51827	47
30.53253	45
30.546791	48
30.561052	37
30.575312	36
30.589573	50
30.603834	46
30.618094	35
30.632355	46
30.646616	49
30.660876	52
30.675137	39
30.689398	57
30.703658	40
30.717919	45
30.73218	58
30.74644	53
30.760701	39
30.774961	57
30.789222	44
30.803483	36
30.817743	40
30.832004	40
30.846265	44
30.860525	36
30.874786	41
30.889047	51
30.903307	46
30.917568	39
30.931829	54
30.946089	50
30.96035	45
30.974611	52
30.988871	51
31.003132	48
31.017393	40
31.031653	43
31.045914	65
31.060175	54
31.074435	36
31.088696	36
31.102957	45
31.117217	35
31.131478	47
31.145739	50
31.159999	44
31.17426	45
31.188521	39
31.202781	47
31.217042	47
31.231303	39
31.245563	33
31.259824	46
31.274085	50
31.288345	46
31.302606	48
31.316867	46
31.331127	40
31.345388	37
31.359649	45
31.37391	44
31.38817	36
31.402431	51
31.416692	45
31.430952	41
31.445213	51
31.459474	43
31.473734	43
31.487995	35
31.502256	37
31.516516	41
31.530777	42
31.545038	36
31.559298	48
31.573559	34
31.58782	47
31.60208	47
31.616341	40
31.630602	39
31.644863	42
31.659123	41
31.673384	51
31.687645	44
31.701905	39
31.716166	41
31.730427	45
31.744687	44
31.758948	38
31.773209	51
31.787469	51
31.80173	43
31.815991	39
31.830252	38
31.844512	49
31.858773	52
31.873034	36
31.887294	48
31.901555	34
31.915816	43
31.930076	36
31.944337	29
31.958598	46
31.972858	40
31.987119	52
32.00138	24
32.015641	43
32.029901	34
32.044162	41
32.058423	45
32.072683	36
32.086944	38
32.101205	36
32.115466	49
32.129726	52
32.143987	34
32.158248	47
32.172508	46
32.186769	47
32.20103	48
32.21529	49
32.229551	43
32.243812	42
32.258073	33
32.272333	42
32.286594	41
32.300855	42
32.315115	41
32.329376	48
32.343637	48
32.357898	47
32.372158	41
32.386419	40
32.40068	44
32.41494	28
32.429201	38
32.443462	44
32.457723	36
32.471983	44
32.486244	45
32.500505	43
32.514765	32
32.529026	36
32.543287	43
32.557548	44
32.571808	57
32.586069	38
32.60033	52
32.614591	41
32.628851	51
32.643112	47
32.657373	47
32.671633	52
32.685894	37
32.700155	31
32.714416	47
32.728676	48
32.742937	41
32.757198	47
32.771459	52
32.785719	34
32.79998	38
32.814241	40
32.828501	43
32.842762	35
32.857023	39
32.871284	45
32.885544	38
32.899805	43
32.914066	30
32.928327	38
32.942587	41
32.956848	42
32.971109	47
32.98537	49
32.99963	39
33.013891	27
33.028152	34
33.042412	29
33.056673	50
33.070934	45
33.085195	48
33.099455	48
33.113716	52
33.127977	42
33.142238	41
33.156498	43
33.170759	36
33.18502	26
33.199281	34
33.213541	49
33.227802	40
33.242063	44
33.256324	30
33.270584	31
33.284845	38
33.299106	38
33.313367	43
33.327627	49
33.341888	52
33.356149	44
33.37041	48
33.38467	31
33.398931	33
33.413192	41
33.427453	46
33.441713	37
33.455974	40
33.470235	45
33.484496	47
33.498756	46
33.513017	54
33.527278	39
33.541539	40
33.555799	38
33.57006	40
33.584321	32
33.598582	60
33.612842	44
33.627103	40
33.641364	48
33.655625	51
33.669886	45
33.684146	36
33.698407	52
33.712668	53
33.726929	40
33.741189	41
33.75545	49
33.769711	37
33.783972	43
33.798232	47
33.812493	38
33.826754	31
33.841015	50
33.855275	45
33.869536	45
33.883797	35
33.898058	47
33.912319	47
33.926579	38
33.94084	46
33.955101	41
33.969362	42
33.983622	33
33.997883	29
34.012144	37
34.026405	34
34.040666	36
34.054926	32
34.069187	55
34.083448	43
34.097709	37
34.111969	34
34.12623	38
34.140491	32
34.154752	36
34.169013	39
34.183273	32
34.197534	33
34.211795	46
34.226056	55
34.240316	35
34.254577	47
34.268838	37
34.283099	30
34.29736	43
34.31162	44
34.325881	41
34.340142	38
34.354403	44
34.368664	35
34.382924	39
34.397185	24
34.411446	33
34.425707	28
34.439967	41
34.454228	47
34.468489	49
34.48275	47
34.497011	31
34.511271	44
34.525532	40
34.539793	36
34.554054	33
34.568315	51
34.582575	36
34.596836	28
34.611097	41
34.625358	36
34.639619	47
34.653879	41
34.66814	39
34.682401	39
34.696662	36
34.710923	40
34.725183	44
34.739444	33
34.753705	35
34.767966	38
34.782227	31
34.796487	41
34.810748	47
34.825009	32
34.83927	38
34.853531	37
34.867791	41
34.882052	47
34.896313	46
34.910574	32
34.924835	36
34.939095	35
34.953356	42
34.967617	49
34.981878	34
34.996139	41
35.0104	49
35.02466	41
35.038921	35
35.053182	45
35.067443	30
35.081704	37
35.095964	40
35.110225	43
35.124486	29
35.138747	44
35.153008	42
35.167268	41
35.181529	43
35.19579	49
35.210051	38
35.224312	40
35.238573	39
35.252833	40
35.267094	39
35.281355	39
35.295616	47
35.309877	34
35.324137	42
35.338398	49
35.352659	53
35.36692	46
35.381181	55
35.395442	41
35.409702	50
35.423963	27
35.438224	48
35.452485	40
35.466746	46
35.481007	49
35.495267	50
35.509528	35
35.523789	46
35.53805	39
35.552311	50
35.566572	49
35.580832	52
35.595093	46
35.609354	49
35.623615	46
35.637876	37
35.652137	39
35.666397	44
35.680658	38
35.694919	52
35.70918	53
35.723441	49
35.737702	44
35.751962	47
35.766223	40
35.780484	37
35.794745	41
35.809006	53
35.823267	70
35.837527	43
35.851788	51
35.866049	67
35.88031	63
35.894571	67
35.908832	76
35.923092	64
35.937353	74
35.951614	64
35.965875	78
35.980136	76
35.994397	71
36.008658	98
36.022918	84
36.037179	77
36.05144	74
36.065701	70
36.079962	69
36.094223	78
36.108483	67
36.122744	59
36.137005	71
36.151266	76
36.165527	66
36.179788	60
36.194049	50
36.208309	52
36.22257	53
36.236831	53
36.251092	41
36.265353	50
36.279614	53
36.293875	64
36.308135	52
36.322396	50
36.336657	55
36.350918	58
36.365179	47
36.37944	50
36.393701	56
36.407961	41
36.422222	57
36.436483	49
36.450744	48
36.465005	45
36.479266	57
36.493527	55
36.507788	56
36.522048	67
36.536309	48
36.55057	47
36.564831	44
36.579092	56
36.593353	63
36.607614	53
36.621874	41
36.636135	52
36.650396	62
36.664657	65
36.678918	64
36.693179	60
36.70744	61
36.721701	53
36.735961	57
36.750222	66
36.764483	68
36.778744	61
36.793005	83
36.807266	76
36.821527	73
36.835788	58
36.850048	62
36.864309	78
36.87857	87
36.892831	71
36.907092	82
36.921353	70
36.935614	67
36.949875	81
36.964135	84
36.978396	95
36.992657	84
37.006918	90
37.021179	73
37.03544	70
37.049701	77
37.063962	79
37.078223	76
37.092483	65
37.106744	65
37.121005	56
37.135266	64
37.149527	80
37.163788	70
37.178049	59
37.19231	66
37.206571	65
37.220831	59
37.235092	53
37.249353	61
37.263614	71
37.277875	71
37.292136	70
37.306397	60
37.320658	67
37.334919	51
37.349179	58
37.36344	49
37.377701	68
37.391962	61
37.406223	77
37.420484	89
37.434745	82
37.449006	86
37.463267	72
37.477528	74
37.491788	99
37.506049	86
37.52031	115
37.534571	92
37.548832	109
37.563093	111
37.577354	120
37.591615	151
37.605876	126
37.620137	134
37.634397	135
37.648658	140
37.662919	162
37.67718	148
37.691441	148
37.705702	168
37.719963	149
37.734224	179
37.748485	146
37.762746	161
37.777007	181
37.791267	191
37.805528	171
37.819789	160
37.83405	127
37.848311	152
37.862572	140
37.876833	155
37.891094	135
37.905355	139
37.919616	131
37.933877	127
37.948138	127
37.962398	114
37.976659	122
37.99092	109
38.005181	94
38.019442	106
38.033703	107
38.047964	98
38.062225	99
38.076486	82
38.090747	99
38.105008	87
38.119269	86
38.133529	105
38.14779	70
38.162051	84
38.176312	74
38.190573	95
38.204834	80
38.219095	75
38.233356	58
38.247617	88
38.261878	68
38.276139	75
38.2904	59
38.304661	80
38.318922	82
38.333182	59
38.347443	71
38.361704	68
38.375965	74
38.390226	80
38.404487	76
38.418748	76
38.433009	64
38.44727	77
38.461531	77
38.475792	84
38.490053	76
38.504314	85
38.518575	92
38.532836	86
38.547097	82
38.561357	83
38.575618	64
38.589879	80
38.60414	87
38.618401	66
38.632662	67
38.646923	86
38.661184	71
38.675445	64
38.689706	59
38.703967	61
38.718228	66
38.732489	69
38.74675	56
38.761011	76
38.775272	50
38.789533	48
38.803793	54
38.818054	62
38.832315	54
38.846576	57
38.860837	55
38.875098	43
38.889359	58
38.90362	50
38.917881	42
38.932142	45
38.946403	45
38.960664	47
38.974925	41
38.989186	42
39.003447	37
39.017708	52
39.031969	46
39.04623	54
39.060491	44
39.074752	47
39.089013	35
39.103273	44
39.117534	37
39.131795	47
39.146056	55
39.160317	45
39.174578	38
39.188839	62
39.2031	44
39.217361	44
39.231622	47
39.245883	49
39.260144	43
39.274405	43
39.288666	39
39.302927	35
39.317188	44
39.331449	32
39.34571	41
39.359971	41
39.374232	41
39.388493	33
39.402754	40
39.417015	40
39.431276	37
39.445537	44
39.459798	32
39.474059	41
39.48832	29
39.502581	40
39.516842	39
39.531102	32
39.545363	46
39.559624	35
39.573885	46
39.588146	36
39.602407	39
39.616668	32
39.630929	43
39.64519	43
39.659451	36
39.673712	30
39.687973	41
39.702234	27
39.716495	33
39.730756	36
39.745017	38
39.759278	44
39.773539	40
39.7878	41
39.802061	25
39.816322	35
39.830583	34
39.844844	36
39.859105	29
39.873366	29
39.887627	38
39.901888	36
39.916149	34
39.93041	41
39.944671	20
39.958932	31
39.973193	44
39.987454	21
40.001715	35
40.015976	36
40.030237	31
40.044498	42
40.058759	36
40.07302	42
40.087281	39
40.101542	45
40.115803	33
40.130064	37
40.144325	31
40.158586	42
40.172847	27
40.187108	33
40.201369	36
40.21563	26
40.229891	46
40.244152	31
40.258413	24
40.272674	43
40.286935	31
40.301196	27
40.315457	41
40.329718	33
40.343979	41
40.35824	39
40.372501	29
40.386762	40
40.401023	28
40.415284	31
40.429545	35
40.443806	41
40.458067	41
40.472328	28
40.486589	43
40.50085	37
40.515111	40
40.529372	26
40.543633	38
40.557894	41
40.572155	37
40.586416	22
40.600677	32
40.614938	32
40.629199	33
40.64346	36
40.657721	28
40.671982	24
40.686243	25
40.700504	28
40.714765	32
40.729026	30
40.743287	33
40.757548	39
40.771809	38
40.78607	35
40.800331	28
40.814592	37
40.828853	35
40.843114	29
40.857375	28
40.871636	38
40.885897	33
40.900158	30
40.914419	40
40.92868	36
40.942941	33
40.957202	34
40.971463	33
40.985724	43
40.999985	32
41.014247	36
41.028508	43
41.042769	25
41.05703	39
41.071291	30
41.085552	47
41.099813	39
41.114074	49
41.128335	50
41.142596	59
41.156857	55
41.171118	55
41.185379	41
41.19964	56
41.213901	51
41.228162	56
41.242423	50
41.256684	49
41.270945	55
41.285206	41
41.299467	53
41.313728	49
41.327989	45
41.34225	50
41.356511	34
41.370772	38
41.385033	26
41.399294	38
41.413555	33
41.427817	37
41.442078	37
41.456339	29
41.4706	31
41.484861	25
41.499122	39
41.513383	31
41.527644	31
41.541905	35
41.556166	29
41.570427	39
41.584688	36
41.598949	26
41.61321	33
41.627471	29
41.641732	35
41.655993	28
41.670254	25
41.684515	42
41.698776	34
41.713037	33
41.727298	39
41.74156	40
41.755821	36
41.770082	41
41.784343	29
41.798604	31
41.812865	37
41.827126	33
41.841387	38
41.855648	38
41.869909	31
41.88417	22
41.898431	28
41.912692	29
41.926953	23
41.941214	32
41.955475	39
41.969736	30
41.983998	29
41.998259	25
42.01252	20
42.026781	34
42.041042	25
42.055303	25
42.069564	42
42.083825	32
42.098086	29
42.112347	28
42.126608	35
42.140869	24
42.15513	33
42.169391	28
42.183652	31
42.197913	33
42.212175	21
42.226436	36
42.240697	33
42.254958	27
42.269219	27
42.28348	31
42.297741	23
42.312002	33
42.326263	36
42.340524	23
42.354785	20
42.369046	25
42.383307	23
42.397569	35
42.41183	27
42.426091	21
42.440352	35
42.454613	37
42.468874	32
42.483135	24
42.497396	28
42.511657	36
42.525918	23
42.540179	30
42.55444	35
42.568701	31
42.582963	25
42.597224	28
42.611485	26
42.625746	29
42.640007	28
42.654268	30
42.668529	32
42.68279	32
42.697051	25
42.711312	30
42.725573	19
42.739834	22
42.754096	30
42.768357	26
42.782618	23
42.796879	32
42.81114	26
42.825401	32
42.839662	30
42.853923	37
42.868184	32
42.882445	30
42.896706	34
42.910968	26
42.925229	24
42.93949	27
42.953751	30
42.968012	20
42.982273	41
42.996534	25
43.010795	34
43.025056	33
43.039317	23
43.053579	31
43.06784	31
43.082101	35
43.096362	30
43.110623	42
43.124884	31
43.139145	27
43.153406	28
43.167667	25
43.181928	24
43.19619	31
43.210451	30
43.224712	28
43.238973	24
43.253234	26
43.267495	24
43.281756	28
43.296017	25
43.310278	29
43.32454	28
43.338801	23
43.353062	32
43.367323	15
43.381584	21
43.395845	17
43.410106	30
43.424367	28
43.438628	27
43.45289	16
43.467151	34
43.481412	21
43.495673	26
43.509934	25
43.524195	32
43.538456	19
43.552717	26
43.566978	39
43.58124	28
43.595501	26
43.609762	27
43.624023	22
43.638284	26
43.652545	25
43.666806	24
43.681067	37
43.695329	27
43.70959	25
43.723851	34
43.738112	25
43.752373	32
43.766634	29
43.780895	37
43.795156	38
43.809417	21
43.823679	28
43.83794	30
43.852201	31
43.866462	25
43.880723	32
43.894984	30
43.909245	34
43.923507	29
43.937768	39
43.952029	39
43.96629	29
43.980551	30
43.994812	28
44.009073	35
44.023334	36
44.037596	39
44.051857	30
44.066118	20
44.080379	31
44.09464	28
44.108901	34
44.123162	35
44.137424	33
44.151685	27
44.165946	32
44.180207	27
44.194468	38
44.208729	22
44.22299	27
44.237251	28
44.251513	19
44.265774	32
44.280035	33
44.294296	34
44.308557	41
44.322818	31
44.337079	25
44.351341	32
44.365602	29
44.379863	34
44.394124	30
44.408385	26
44.422646	30
44.436908	45
44.451169	26
44.46543	27
44.479691	26
44.493952	15
44.508213	31
44.522474	20
44.536736	20
44.550997	26
44.565258	26
44.579519	25
44.59378	32
44.608041	40
44.622302	33
44.636564	26
44.650825	31
44.665086	26
44.679347	37
44.693608	22
44.707869	31
44.722131	30
44.736392	36
44.750653	21
44.764914	22
44.779175	21
44.793436	32
44.807698	31
44.821959	33
44.83622	20
44.850481	29
44.864742	26
44.879003	32
44.893265	24
44.907526	28
44.921787	33
44.936048	24
44.950309	30
44.96457	28
44.978831	27
44.993093	23
45.007354	24
45.021615	33
45.035876	28
45.050137	23
45.064399	29
45.07866	37
45.092921	27
45.107182	29
45.121443	22
45.135704	22
45.149966	21
45.164227	18
45.178488	35
45.192749	30
45.20701	27
45.221271	23
45.235533	31
45.249794	24
45.264055	40
45.278316	28
45.292577	37
45.306838	22
45.3211	21
45.335361	35
45.349622	23
45.363883	31
45.378144	28
45.392406	30
45.406667	15
45.420928	28
45.435189	22
45.44945	34
45.463711	30
45.477973	39
45.492234	23
45.506495	30
45.520756	25
45.535017	28
45.549279	29
45.56354	20
45.577801	31
45.592062	30
45.606323	24
45.620585	36
45.634846	25
45.649107	25
45.663368	29
45.677629	34
45.69189	20
45.706152	31
45.720413	29
45.734674	31
45.748935	33
45.763196	28
45.777458	31
45.791719	23
45.80598	25
45.820241	33
45.834502	30
45.848764	33
45.863025	31
45.877286	27
45.891547	24
45.905808	27
45.92007	34
45.934331	23
45.948592	34
45.962853	26
45.977114	27
45.991376	31
46.005637	27
46.019898	25
46.034159	32
46.04842	26
46.062682	23
46.076943	23
46.091204	19
46.105465	23
46.119726	24
46.133988	23
46.148249	28
46.16251	25
46.176771	19
46.191032	27
46.205294	29
46.219555	26
46.233816	25
46.248077	26
46.262339	22
46.2766	26
46.290861	24
46.305122	22
46.319383	19
46.333645	17
46.347906	33
46.362167	36
46.376428	31
46.390689	25
46.404951	29
46.419212	26
46.433473	26
46.447734	29
46.461996	20
46.476257	25
46.490518	34
46.504779	32
46.51904	34
46.533302	34
46.547563	28
46.561824	30
46.576085	31
46.590347	32
46.604608	26
46.618869	30
46.63313	33
46.647391	20
46.661653	26
46.675914	26
46.690175	37
46.704436	31
46.718698	27
46.732959	44
46.74722	28
46.761481	32
46.775742	32
46.790004	30
46.804265	31
46.818526	26
46.832787	36
46.847049	32
46.86131	28
46.875571	26
46.889832	35
46.904094	36
46.918355	32
46.932616	37
46.946877	40
46.961139	31
46.9754	32
46.989661	33
47.003922	27
47.018183	32
47.032445	24
47.046706	41
47.060967	32
47.075228	29
47.08949	35
47.103751	37
47.118012	38
47.132273	32
47.146535	28
47.160796	30
47.175057	33
47.189318	30
47.20358	30
47.217841	36
47.232102	37
47.246363	43
47.260625	36
47.274886	37
47.289147	42
47.303408	47
47.31767	37
47.331931	42
47.346192	42
47.360453	45
47.374715	38
47.388976	29
47.403237	30
47.417498	52
47.43176	58
47.446021	67
47.460282	53
47.474543	49
47.488805	61
47.503066	60
47.517327	55
47.531588	55
47.54585	62
47.560111	75
47.574372	74
47.588633	72
47.602895	61
47.617156	57
47.631417	69
47.645678	84
47.65994	72
47.674201	98
47.688462	73
47.702723	105
47.716985	104
47.731246	94
47.745507	117
47.759769	131
47.77403	126
47.788291	139
47.802552	139
47.816814	152
47.831075	138
47.845336	182
47.859597	164
47.873859	189
47.88812	189
47.902381	188
47.916642	190
47.930904	206
47.945165	207
47.959426	202
47.973688	184
47.987949	198
48.00221	197
48.016471	205
48.030733	201
48.044994	198
48.059255	196
48.073516	201
48.087778	180
48.102039	186
48.1163	179
48.130562	152
48.144823	159
48.159084	150
48.173345	126
48.187607	146
48.201868	129
48.216129	116
48.230391	108
48.244652	107
48.258913	90
48.273174	103
48.287436	94
48.301697	102
48.315958	88
48.330219	77
48.344481	80
48.358742	69
48.373003	75
48.387265	52
48.401526	79
48.415787	54
48.430048	55
48.44431	51
48.458571	44
48.472832	43
48.487094	40
48.501355	50
48.515616	50
48.529878	61
48.544139	41
48.5584	48
48.572661	44
48.586923	39
48.601184	51
48.615445	36
48.629707	30
48.643968	36
48.658229	27
48.67249	38
48.686752	35
48.701013	40
48.715274	30
48.729536	44
48.743797	34
48.758058	33
48.77232	32
48.786581	29
48.800842	30
48.815103	35
48.829365	29
48.843626	37
48.857887	37
48.872149	30
48.88641	24
48.900671	25
48.914933	30
48.929194	36
48.943455	22
48.957716	31
48.971978	30
48.986239	29
49.0005	28
49.014762	34
49.029023	23
49.043284	28
49.057546	27
49.071807	24
49.086068	22
49.10033	30
49.114591	38
49.128852	34
49.143113	32
49.157375	20
49.171636	29
49.185897	26
49.200159	24
49.21442	25
49.228681	33
49.242943	29
49.257204	18
49.271465	33
49.285727	36
49.299988	25
49.314249	18
49.328511	42
49.342772	28
49.357033	27
49.371295	26
49.385556	24
49.399817	23
49.414078	26
49.42834	33
49.442601	29
49.456862	38
49.471124	21
49.485385	27
49.499646	19
49.513908	33
49.528169	24
49.54243	30
49.556692	27
49.570953	31
49.585214	17
49.599476	21
49.613737	32
49.627998	28
49.64226	30
49.656521	29
49.670782	26
49.685044	21
49.699305	25
49.713566	27
49.727828	26
49.742089	27
49.75635	24
49.770612	39
49.784873	28
49.799134	24
49.813396	24
49.827657	21
49.841918	30
49.85618	34
49.870441	26
49.884702	36
49.898964	22
49.913225	32
49.927486	18
49.941748	27
49.956009	25
49.97027	21
49.984532	23
49.998793	29
50.013054	20
50.027316	28
50.041577	26
50.055838	30
50.0701	28
50.084361	26
50.098622	26
50.112884	27
50.127145	27
50.141407	24
50.155668	26
50.169929	32
50.184191	33
50.198452	16
50.212713	25
50.226975	11
50.241236	27
50.255497	27
50.269759	23
50.28402	19
50.298281	21
50.312543	24
50.326804	28
50.341065	23
50.355327	24
50.369588	20
50.383849	28
50.398111	20
50.412372	27
50.426634	32
50.440895	20
50.455156	25
50.469418	29
50.483679	30
50.49794	38
50.512202	19
50.526463	28
50.540724	21
50.554986	28
50.569247	21
50.583508	30
50.59777	34
50.612031	22
50.626293	16
50.640554	22
50.654815	23
50.669077	20
50.683338	32
50.697599	30
50.711861	21
50.726122	25
50.740384	19
50.754645	18
50.768906	31
50.783168	23
50.797429	21
50.81169	27
50.825952	28
50.840213	19
50.854474	36
50.868736	30
50.882997	21
50.897259	23
50.91152	12
50.925781	21
50.940043	22
50.954304	26
50.968565	20
50.982827	13
50.997088	22
51.01135	26
51.025611	24
51.039872	18
51.054134	27
51.068395	17
51.082656	22
51.096918	28
51.111179	19
51.125441	18
51.139702	23
51.153963	17
51.168225	25
51.182486	20
51.196748	28
51.211009	30
51.22527	27
51.239532	29
51.253793	22
51.268054	21
51.282316	23
51.296577	23
51.310839	21
51.3251	20
51.339361	22
51.353623	18
51.367884	24
51.382146	23
51.396407	29
51.410668	25
51.42493	22
51.439191	21
51.453452	21
51.467714	28
51.481975	19
51.496237	26
51.510498	20
51.524759	18
51.539021	24
51.553282	24
51.567544	20
51.581805	21
51.596066	32
51.610328	20
51.624589	25
51.638851	27
51.653112	16
51.667373	31
51.681635	23
51.695896	19
51.710158	24
51.724419	15
51.73868	25
51.752942	21
51.767203	22
51.781465	27
51.795726	26
51.809987	22
51.824249	20
51.83851	25
51.852772	32
51.867033	31
51.881294	18
51.895556	28
51.909817	23
51.924079	27
51.93834	28
51.952601	27
51.966863	19
51.981124	22
51.995386	17
52.009647	27
52.023909	25
52.03817	21
52.052431	29
52.066693	25
52.080954	28
52.095216	29
52.109477	25
52.123738	29
52.138	25
52.152261	16
52.166523	19
52.180784	29
52.195045	31
52.209307	15
52.223568	24
52.23783	19
52.252091	32
52.266353	26
52.280614	28
52.294875	18
52.309137	32
52.323398	17
52.33766	29
52.351921	14
52.366183	25
52.380444	28
52.394705	24
52.408967	28
52.423228	22
52.43749	19
52.451751	26
52.466012	27
52.480274	30
52.494535	19
52.508797	25
52.523058	27
52.53732	28
52.551581	35
52.565842	25
52.580104	26
52.594365	26
52.608627	21
52.622888	32
52.63715	23
52.651411	31
52.665673	22
52.679934	26
52.694195	25
52.708457	31
52.722718	25
52.73698	28
52.751241	22
52.765503	24
52.779764	21
52.794025	29
52.808287	20
52.822548	30
52.83681	29
52.851071	27
52.865333	35
52.879594	22
52.893855	26
52.908117	30
52.922378	27
52.93664	25
52.950901	21
52.965163	38
52.979424	29
52.993686	35
53.007947	27
53.022208	26
53.03647	30
53.050731	26
53.064993	22
53.079254	34
53.093516	31
53.107777	37
53.122039	36
53.1363	33
53.150562	31
53.164823	42
53.179084	29
53.193346	37
53.207607	35
53.221869	35
53.23613	42
53.250392	40
53.264653	34
53.278915	37
53.293176	36
53.307437	46
53.321699	45
53.33596	46
53.350222	55
53.364483	34
53.378745	23
53.393006	43
53.407268	48
53.421529	40
53.435791	50
53.450052	46
53.464314	55
53.478575	61
53.492836	48
53.507098	51
53.521359	63
53.535621	46
53.549882	75
53.564144	74
53.578405	64
53.592667	59
53.606928	81
53.62119	81
53.635451	91
53.649713	95
53.663974	97
53.678235	112
53.692497	94
53.706758	98
53.72102	108
53.735281	107
53.749543	102
53.763804	135
53.778066	137
53.792327	140
53.806589	133
53.82085	129
53.835112	123
53.849373	113
53.863635	137
53.877896	132
53.892158	140
53.906419	125
53.92068	126
53.934942	133
53.949203	127
53.963465	138
53.977726	130
53.991988	113
54.006249	139
54.020511	128
54.034772	117
54.049034	115
54.063295	120
54.077557	136
54.091818	127
54.10608	117
54.120341	129
54.134603	115
54.148864	130
54.163126	129
54.177387	94
54.191649	108
54.20591	124
54.220172	131
54.234433	101
54.248695	110
54.262956	113
54.277218	92
54.291479	95
54.30574	99
54.320002	93
54.334263	107
54.348525	83
54.362786	86
54.377048	97
54.391309	96
54.405571	90
54.419832	80
54.434094	85
54.448355	85
54.462617	68
54.476878	82
54.49114	71
54.505401	85
54.519663	75
54.533924	72
54.548186	50
54.562447	67
54.576709	78
54.59097	83
54.605232	68
54.619493	66
54.633755	65
54.648016	86
54.662278	71
54.676539	87
54.690801	82
54.705062	75
54.719324	85
54.733585	74
54.747847	80
54.762108	83
54.77637	112
54.790631	95
54.804893	94
54.819154	90
54.833416	110
54.847677	128
54.861939	121
54.8762	95
54.890462	109
54.904723	135
54.918985	130
54.933246	133
54.947508	126
54.961769	134
54.976031	123
54.990292	150
55.004554	147
55.018816	124
55.033077	144
55.047339	131
55.0616	136
55.075862	122
55.090123	102
55.104385	110
55.118646	110
55.132908	101
55.147169	124
55.161431	101
55.175692	103
55.189954	96
55.204215	92
55.218477	96
55.232738	84
55.247	77
55.261261	77
55.275523	79
55.289784	61
55.304046	68
55.318307	72
55.332569	59
55.34683	48
55.361092	41
55.375353	53
55.389615	61
55.403877	49
55.418138	54
55.4324	48
55.446661	51
55.460923	50
55.475184	46
55.489446	41
55.503707	43
55.517969	36
55.53223	35
55.546492	50
55.560753	40
55.575015	37
55.589276	40
55.603538	35
55.617799	45
55.632061	30
55.646323	29
55.660584	37
55.674846	27
55.689107	32
55.703369	25
55.71763	36
55.731892	42
55.746153	28
55.760415	37
55.774676	26
55.788938	38
55.803199	34
55.817461	26
55.831723	27
55.845984	26
55.860246	36
55.874507	29
55.888769	27
55.90303	26
55.917292	29
55.931553	31
55.945815	28
55.960076	27
55.974338	25
55.988599	25
56.002861	28
56.017123	28
56.031384	32
56.045646	31
56.059907	30
56.074169	25
56.08843	27
56.102692	36
56.116953	27
56.131215	27
56.145476	24
56.159738	25
56.174	33
56.188261	27
56.202523	27
56.216784	34
56.231046	25
56.245307	28
56.259569	29
56.27383	28
56.288092	19
56.302354	32
56.316615	34
56.330877	41
56.345138	43
56.3594	24
56.373661	34
56.387923	34
56.402184	31
56.416446	29
56.430708	35
56.444969	36
56.459231	33
56.473492	29
56.487754	44
56.502015	26
56.516277	35
56.530539	39
56.5448	29
56.559062	29
56.573323	41
56.587585	37
56.601846	25
56.616108	35
56.630369	26
56.644631	35
56.658893	36
56.673154	19
56.687416	42
56.701677	31
56.715939	33
56.7302	42
56.744462	25
56.758724	32
56.772985	18
56.787247	26
56.801508	30
56.81577	43
56.830031	30
56.844293	27
56.858555	27
56.872816	28
56.887078	25
56.901339	16
56.915601	30
56.929862	27
56.944124	23
56.958386	19
56.972647	26
56.986909	23
57.00117	28
57.015432	19
57.029694	20
57.043955	21
57.058217	23
57.072478	21
57.08674	19
57.101001	24
57.115263	18
57.129525	20
57.143786	23
57.158048	29
57.172309	24
57.186571	30
57.200833	18
57.215094	21
57.229356	23
57.243617	26
57.257879	29
57.27214	26
57.286402	24
57.300664	9
57.314925	23
57.329187	23
57.343448	27
57.35771	18
57.371972	22
57.386233	16
57.400495	23
57.414756	22
57.429018	18
57.44328	17
57.457541	21
57.471803	25
57.486064	16
57.500326	21
57.514588	19
57.528849	23
57.543111	10
57.557372	20
57.571634	31
57.585896	20
57.600157	30
57.614419	24
57.62868	22
57.642942	15
57.657204	20
57.671465	22
57.685727	29
57.699988	17
57.71425	19
57.728512	18
57.742773	17
57.757035	24
57.771296	19
57.785558	32
57.79982	17
57.814081	25
57.828343	18
57.842604	13
57.856866	26
57.871128	23
57.885389	22
57.899651	11
57.913912	16
57.928174	18
57.942436	24
57.956697	18
57.970959	16
57.98522	29
57.999482	18
58.013744	27
58.028005	29
58.042267	25
58.056529	17
58.07079	23
58.085052	21
58.099313	16
58.113575	17
58.127837	20
58.142098	32
58.15636	21
58.170621	21
58.184883	17
58.199145	20
58.213406	23
58.227668	22
58.24193	24
58.256191	18
58.270453	26
58.284714	16
58.298976	25
58.313238	15
58.327499	23
58.341761	12
58.356023	21
58.370284	30
58.384546	22
58.398807	16
58.413069	33
58.427331	20
58.441592	16
58.455854	10
58.470116	20
58.484377	24
58.498639	31
58.5129	15
58.527162	15
58.541424	14
58.555685	19
58.569947	17
58.584209	17
58.59847	23
58.612732	17
58.626993	25
58.641255	21
58.655517	24
58.669778	17
58.68404	19
58.698302	9
58.712563	24
58.726825	20
58.741087	17
58.755348	23
58.76961	24
58.783871	15
58.798133	21
58.812395	26
58.826656	17
58.840918	20
58.85518	23
58.869441	33
58.883703	19
58.897965	20
58.912226	15
58.926488	20
58.94075	16
58.955011	19
58.969273	21
58.983534	19
58.997796	18
59.012058	19
59.026319	21
59.040581	24
59.054843	22
59.069104	20
59.083366	18
59.097628	21
59.111889	30
59.126151	22
59.140413	26
59.154674	23
59.168936	20
59.183198	18
59.197459	20
59.211721	14
59.225982	19
59.240244	27
59.254506	18
59.268767	23
59.283029	15
59.297291	21
59.311552	21
59.325814	22
59.340076	22
59.354337	17
59.368599	17
59.382861	25
59.397122	18
59.411384	19
59.425646	22
59.439907	27
59.454169	25
59.468431	19
59.482692	18
59.496954	24
59.511216	16
59.525477	24
59.539739	22
59.554001	24
59.568262	17
59.582524	23
59.596786	27
59.611047	20
59.625309	25
59.639571	25
59.653832	19
59.668094	18
59.682356	25
59.696617	17
59.710879	23
59.725141	21
59.739402	19
59.753664	24
59.767926	31
59.782187	32
59.796449	15
59.810711	26
59.824972	30
59.839234	25
59.853496	16
59.867757	26
59.882019	25
59.896281	22
59.910542	32
59.924804	22
59.939066	22
59.953327	14
59.967589	23
59.981851	24
59.996112	32
60.010374	25
60.024636	24
60.038897	20
60.053159	24
60.067421	22
60.081683	21
60.095944	24
60.110206	26
60.124468	35
60.138729	27
60.152991	24
60.167253	28
60.181514	24
60.195776	33
60.210038	23
60.224299	35
60.238561	22
60.252823	23
60.267084	29
60.281346	26
60.295608	23
60.309869	28
60.324131	20
60.338393	26
60.352655	20
60.366916	25
60.381178	20
60.39544	24
60.409701	28
60.423963	29
60.438225	31
60.452486	31
60.466748	20
60.48101	26
60.495271	23
60.509533	15
60.523795	27
60.538057	25
60.552318	26
60.56658	19
60.580842	25
60.595103	19
60.609365	27
60.623627	24
60.637888	29
60.65215	31
60.666412	26
60.680674	26
60.694935	30
60.709197	24
60.723459	15
60.73772	25
60.751982	26
60.766244	29
60.780505	29
60.794767	29
60.809029	25
60.823291	26
60.837552	21
60.851814	25
60.866076	30
60.880337	18
60.894599	27
60.908861	21
60.923123	33
60.937384	24
60.951646	32
60.965908	34
60.980169	23
60.994431	34
61.008693	39
61.022954	39
61.037216	31
61.051478	29
61.06574	36
61.080001	35
61.094263	25
61.108525	26
61.122786	25
61.137048	18
61.15131	24
61.165572	21
61.179833	28
61.194095	32
61.208357	27
61.222619	24
61.23688	26
61.251142	20
61.265404	29
61.279665	28
61.293927	29
61.308189	32
61.322451	25
61.336712	23
61.350974	22
61.365236	19
61.379497	40
61.393759	27
61.408021	34
61.422283	33
61.436544	28
61.450806	24
61.465068	22
61.47933	30
61.493591	25
61.507853	22
61.522115	25
61.536376	36
61.550638	33
61.5649	36
61.579162	29
61.593423	30
61.607685	29
61.621947	36
61.636209	29
61.65047	25
61.664732	48
61.678994	27
61.693255	34
61.707517	36
61.721779	39
61.736041	31
61.750302	39
61.764564	42
61.778826	38
61.793088	38
61.807349	45
61.821611	34
61.835873	34
61.850135	45
61.864396	46
61.878658	40
61.89292	53
61.907182	44
61.921443	48
61.935705	39
61.949967	47
61.964228	47
61.97849	42
61.992752	33
62.007014	48
62.021275	38
62.035537	47
62.049799	45
62.064061	49
62.078322	50
62.092584	64
62.106846	61
62.121108	52
62.135369	49
62.149631	55
62.163893	48
62.178155	56
62.192416	67
62.206678	67
62.22094	65
62.235202	51
62.249463	60
62.263725	72
62.277987	61
62.292249	66
62.30651	70
62.320772	64
62.335034	56
62.349296	70
62.363557	55
62.377819	70
62.392081	70
62.406343	65
62.420605	74
62.434866	76
62.449128	94
62.46339	84
62.477652	90
62.491913	87
62.506175	92
62.520437	98
62.534699	99
62.54896	102
62.563222	94
62.577484	101
62.591746	99
62.606007	93
62.620269	109
62.634531	103
62.648793	106
62.663054	105
62.677316	116
62.691578	100
62.70584	95
62.720102	113
62.734363	94
62.748625	116
62.762887	100
62.777149	89
62.79141	87
62.805672	98
62.819934	89
62.834196	99
62.848457	91
62.862719	85
62.876981	93
62.891243	78
62.905505	66
62.919766	65
62.934028	63
62.94829	77
62.962552	67
62.976813	75
62.991075	43
63.005337	49
63.019599	60
63.033861	68
63.048122	53
63.062384	53
63.076646	52
63.090908	62
63.105169	51
63.119431	37
63.133693	57
63.147955	50
63.162217	47
63.176478	48
63.19074	56
63.205002	40
63.219264	46
63.233525	44
63.247787	34
63.262049	31
63.276311	43
63.290573	36
63.304834	36
63.319096	46
63.333358	41
63.34762	39
63.361882	40
63.376143	40
63.390405	32
63.404667	37
63.418929	32
63.43319	41
63.447452	36
63.461714	32
63.475976	30
63.490238	28
63.504499	24
63.518761	33
63.533023	32
63.547285	29
63.561547	32
63.575808	34
63.59007	33
63.604332	35
63.618594	30
63.632856	34
63.647117	29
63.661379	19
63.675641	31
63.689903	21
63.704165	31
63.718426	26
63.732688	22
63.74695	26
63.761212	37
63.775474	27
63.789735	27
63.803997	42
63.818259	35
63.832521	33
63.846783	36
63.861044	29
63.875306	41
63.889568	37
63.90383	35
63.918092	22
63.932353	33
63.946615	29
63.960877	35
63.975139	26
63.989401	33
64.003662	28
64.017924	20
64.032186	31
64.046448	25
64.06071	40
64.074971	30
64.089233	42
64.103495	22
64.117757	22
64.132019	29
64.146281	32
64.160542	32
64.174804	26
64.189066	38
64.203328	39
64.21759	28
64.231851	29
64.246113	18
64.260375	30
64.274637	26
64.288899	22
64.303161	32
64.317422	23
64.331684	27
64.345946	14
64.360208	22
64.37447	20
64.388731	32
64.402993	31
64.417255	20
64.431517	30
64.445779	30
64.460041	21
64.474302	29
64.488564	24
64.502826	23
64.517088	23
64.53135	26
64.545612	22
64.559873	23
64.574135	32
64.588397	31
64.602659	22
64.616921	26
64.631182	30
64.645444	14
64.659706	26
64.673968	25
64.68823	30
64.702492	19
64.716753	35
64.731015	16
64.745277	37
64.759539	30
64.773801	27
64.788063	18
64.802324	16
64.816586	19
64.830848	26
64.84511	31
64.859372	26
64.873634	23
64.887895	23
64.902157	35
64.916419	30
64.930681	19
64.944943	22
64.959205	24
64.973467	14
64.987728	34
65.00199	25
65.016252	17
65.030514	21
65.044776	17
65.059038	23
65.073299	24
65.087561	20
65.101823	21
65.116085	18
65.130347	30
65.144609	25
65.15887	19
65.173132	18
65.187394	28
65.201656	28
65.215918	31
65.23018	25
65.244442	24
65.258703	16
65.272965	20
65.287227	22
65.301489	17
65.315751	23
65.330013	24
65.344274	25
65.358536	20
65.372798	29
65.38706	20
65.401322	26
65.415584	20
65.429846	24
65.444107	19
65.458369	20
65.472631	26
65.486893	29
65.501155	21
65.515417	20
65.529679	16
65.54394	19
65.558202	34
65.572464	31
65.586726	26
65.600988	28
65.61525	22
65.629512	23
65.643773	30
65.658035	20
65.672297	24
65.686559	16
65.700821	23
65.715083	28
65.729345	34
65.743607	29
65.757868	27
65.77213	28
65.786392	16
65.800654	27
65.814916	26
65.829178	19
65.84344	20
65.857701	26
65.871963	33
65.886225	34
65.900487	21
65.914749	15
65.929011	29
65.943273	23
65.957535	20
65.971796	30
65.986058	26
66.00032	17
66.014582	24
66.028844	23
66.043106	26
66.057368	20
66.07163	14
66.085891	19
66.100153	30
66.114415	21
66.128677	28
66.142939	24
66.157201	21
66.171463	27
66.185725	17
66.199986	27
66.214248	29
66.22851	18
66.242772	22
66.257034	25
66.271296	24
66.285558	30
66.29982	29
66.314081	23
66.328343	22
66.342605	24
66.356867	22
66.371129	29
66.385391	22
66.399653	22
66.413915	26
66.428177	31
66.442438	23
66.4567	24
66.470962	19
66.485224	24
66.499486	26
66.513748	26
66.52801	10
66.542272	14
66.556534	21
66.570795	19
66.585057	27
66.599319	25
66.613581	23
66.627843	22
66.642105	25
66.656367	24
66.670629	26
66.684891	27
66.699152	28
66.713414	22
66.727676	16
66.741938	33
66.7562	24
66.770462	27
66.784724	25
66.798986	26
66.813248	21
66.82751	28
66.841771	15
66.856033	19
66.870295	21
66.884557	26
66.898819	22
66.913081	27
66.927343	26
66.941605	36
66.955867	23
66.970129	20
66.98439	18
66.998652	27
67.012914	26
67.027176	14
67.041438	24
67.0557	22
67.069962	23
67.084224	29
67.098486	31
67.112748	11
67.12701	22
67.141271	17
67.155533	23
67.169795	25
67.184057	21
67.198319	29
67.212581	19
67.226843	15
67.241105	32
67.255367	15
67.269629	18
67.283891	31
67.298152	26
67.312414	21
67.326676	24
67.340938	26
67.3552	21
67.369462	26
67.383724	17
67.397986	28
67.412248	23
67.42651	20
67.440772	15
67.455034	21
67.469295	10
67.483557	22
67.497819	33
67.512081	28
67.526343	16
67.540605	25
67.554867	23
67.569129	17
67.583391	36
67.597653	18
67.611915	27
67.626177	24
67.640439	29
67.6547	18
67.668962	24
67.683224	18
67.697486	21
67.711748	14
67.72601	29
67.740272	21
67.754534	26
67.768796	24
67.783058	21
67.79732	18
67.811582	25
67.825844	27
67.840106	21
67.854367	27
67.868629	25
67.882891	22
67.897153	22
67.911415	24
67.925677	25
67.939939	21
67.954201	17
67.968463	18
67.982725	23
67.996987	25
68.011249	21
68.025511	23
68.039773	29
68.054035	28
68.068296	26
68.082558	31
68.09682	34
68.111082	27
68.125344	29
68.139606	19
68.153868	32
68.16813	27
68.182392	25
68.196654	28
68.210916	25
68.225178	29
68.23944	29
68.253702	37
68.267964	28
68.282226	25
68.296488	33
68.310749	27
68.325011	24
68.339273	32
68.353535	27
68.367797	27
68.382059	30
68.396321	40
68.410583	31
68.424845	37
68.439107	37
68.453369	36
68.467631	41
68.481893	47
68.496155	42
68.510417	28
68.524679	49
68.538941	53
68.553203	47
68.567465	35
68.581727	46
68.595989	43
68.61025	48
68.624512	49
68.638774	46
68.653036	54
68.667298	49
68.68156	61
68.695822	42
68.710084	58
68.724346	60
68.738608	54
68.75287	47
68.767132	68
68.781394	47
68.795656	58
68.809918	56
68.82418	61
68.838442	70
68.852704	61
68.866966	58
68.881228	58
68.89549	66
68.909752	54
68.924014	57
68.938276	72
68.952538	49
68.966799	58
68.981061	59
68.995323	54
69.009585	46
69.023847	47
69.038109	50
69.052371	54
69.066633	55
69.080895	49
69.095157	49
69.109419	45
69.123681	51
69.137943	37
69.152205	39
69.166467	40
69.180729	37
69.194991	46
69.209253	38
69.223515	53
69.237777	43
69.252039	26
69.266301	37
69.280563	43
69.294825	36
69.309087	33
69.323349	36
69.337611	43
69.351873	36
69.366135	28
69.380397	34
69.394659	32
69.408921	32
69.423183	31
69.437445	28
69.451707	28
69.465969	32
69.480231	25
69.494493	38
69.508755	27
69.523017	31
69.537279	25
69.55154	32
69.565802	33
69.580064	27
69.594326	33
69.608588	25
69.62285	31
69.637112	33
69.651374	37
69.665636	39
69.679898	44
69.69416	35
69.708422	29
69.722684	36
69.736946	33
69.751208	44
69.76547	36
69.779732	37
69.793994	44
69.808256	31
69.822518	43
69.83678	39
69.851042	42
69.865304	31
69.879566	39
69.893828	39
69.90809	38
69.922352	28
69.936614	41
69.950876	43
69.965138	41
69.9794	36
69.993662	38
70.007924	35
70.022186	40
70.036448	45
70.05071	37
70.064972	56
70.079234	46
70.093496	50
70.107758	43
70.12202	55
70.136282	50
70.150544	48
70.164806	45
70.179068	41
70.19333	48
70.207592	65
70.221854	45
70.236116	46
70.250378	59
70.26464	53
70.278902	57
70.293164	49
70.307426	58
70.321688	52
70.33595	49
70.350212	45
70.364474	41
70.378736	43
70.392998	51
70.40726	44
70.421522	48
70.435784	53
70.450046	36
70.464308	44
70.47857	31
70.492832	33
70.507094	52
70.521356	40
70.535618	41
70.549881	28
70.564143	29
70.578405	33
70.592667	31
70.606929	29
70.621191	23
70.635453	28
70.649715	34
70.663977	35
70.678239	30
70.692501	33
70.706763	19
70.721025	31
70.735287	20
70.749549	21
70.763811	34
70.778073	32
70.792335	20
70.806597	23
70.820859	29
70.835121	23
70.849383	28
70.863645	25
70.877907	25
70.892169	19
70.906431	28
70.920693	18
70.934955	29
70.949217	28
70.963479	22
70.977741	23
70.992003	28
71.006265	25
71.020527	21
71.034789	36
71.049051	27
71.063313	18
71.077575	20
71.091837	19
71.106099	23
71.120361	21
71.134624	24
71.148886	21
71.163148	20
71.17741	28
71.191672	24
71.205934	27
71.220196	22
71.234458	24
71.24872	23
71.262982	16
71.277244	17
71.291506	27
71.305768	18
71.32003	17
71.334292	15
71.348554	19
71.362816	12
71.377078	14
71.39134	21
71.405602	30
71.419864	9
71.434126	17
71.448388	19
71.46265	20
71.476912	21
71.491175	11
71.505437	18
71.519699	21
71.533961	17
71.548223	30
71.562485	7
71.576747	15
71.591009	13
71.605271	26
71.619533	18
71.633795	24
71.648057	15
71.662319	21
71.676581	22
71.690843	17
71.705105	22
71.719367	12
71.733629	19
71.747891	26
71.762153	21
71.776416	15
71.790678	17
71.80494	19
71.819202	21
71.833464	24
71.847726	19
71.861988	14
71.87625	17
71.890512	17
71.904774	19
71.919036	13
71.933298	21
71.94756	15
71.961822	17
71.976084	17
71.990346	16
72.004608	20
72.01887	15
72.033133	13
72.047395	18
72.061657	20
72.075919	14
72.090181	10
72.104443	11
72.118705	20
72.132967	9
72.147229	20
72.161491	21
72.175753	12
72.190015	9
72.204277	18
72.218539	16
72.232801	21
72.247064	18
72.261326	17
72.275588	28
72.28985	20
72.304112	28
72.318374	10
72.332636	15
72.346898	14
72.36116	25
72.375422	16
72.389684	21
72.403946	13
72.418208	22
72.43247	15
72.446733	25
72.460995	18
72.475257	25
72.489519	16
72.503781	15
72.518043	14
72.532305	9
72.546567	24
72.560829	17
72.575091	22
72.589353	21
72.603615	20
72.617877	15
72.63214	19
72.646402	21
72.660664	15
72.674926	19
72.689188	16
72.70345	20
72.717712	13
72.731974	15
72.746236	13
72.760498	12
72.77476	16
72.789022	14
72.803285	15
72.817547	17
72.831809	15
72.846071	17
72.860333	22
72.874595	19
72.888857	12
72.903119	22
72.917381	17
72.931643	11
72.945905	14
72.960167	10
72.97443	19
72.988692	11
73.002954	23
73.017216	25
73.031478	22
73.04574	21
73.060002	11
73.074264	16
73.088526	10
73.102788	21
73.11705	17
73.131313	18
73.145575	12
73.159837	14
73.174099	15
73.188361	13
73.202623	16
73.216885	13
73.231147	17
73.245409	16
73.259671	11
73.273934	16
73.288196	14
73.302458	22
73.31672	26
73.330982	20
73.345244	16
73.359506	12
73.373768	16
73.38803	15
73.402292	18
73.416555	21
73.430817	16
73.445079	22
73.459341	12
73.473603	20
73.487865	18
73.502127	17
73.516389	9
73.530651	16
73.544914	19
73.559176	23
73.573438	12
73.5877	7
73.601962	14
73.616224	18
73.630486	11
73.644748	16
73.65901	19
73.673273	11
73.687535	16
73.701797	23
73.716059	16
73.730321	18
73.744583	21
73.758845	19
73.773107	27
73.787369	17
73.801632	14
73.815894	15
73.830156	24
73.844418	19
73.85868	19
73.872942	15
73.887204	18
73.901466	22
73.915728	23
73.929991	19
73.944253	22
73.958515	13
73.972777	22
73.987039	16
74.001301	25
74.015563	12
74.029825	20
74.044088	31
74.05835	14
74.072612	21
74.086874	20
74.101136	21
74.115398	21
74.12966	11
74.143922	27
74.158185	16
74.172447	29
74.186709	23
74.200971	17
74.215233	25
74.229495	15
74.243757	21
74.258019	22
74.272282	17
74.286544	26
74.300806	17
74.315068	27
74.32933	33
74.343592	13
74.357854	26
74.372117	28
74.386379	22
74.400641	15
74.414903	32
74.429165	20
74.443427	21
74.457689	29
74.471951	28
74.486214	30
74.500476	21
74.514738	32
74.529	24
74.543262	24
74.557524	37
74.571786	27
74.586049	28
74.600311	42
74.614573	37
74.628835	36
74.643097	31
74.657359	32
74.671621	28
74.685884	34
74.700146	35
74.714408	35
74.72867	37
74.742932	45
74.757194	38
74.771456	39
74.785719	48
74.799981	47
74.814243	49
74.828505	40
74.842767	46
74.857029	59
74.871291	52
74.885554	51
74.899816	58
74.914078	67
74.92834	59
74.942602	61
74.956864	63
74.971126	59
74.985389	59
74.999651	47
75.013913	70
75.028175	49
75.042437	54
75.056699	57
75.070962	63
75.085224	68
75.099486	69
75.113748	61
75.12801	66
75.142272	69
75.156534	65
75.170797	39
75.185059	51
75.199321	43
75.213583	51
75.227845	48
75.242107	49
75.25637	52
75.270632	48
75.284894	37
75.299156	48
75.313418	47
75.32768	49
75.341943	37
75.356205	42
75.370467	39
75.384729	36
75.398991	36
75.413253	27
75.427516	42
75.441778	30
75.45604	25
75.470302	38
75.484564	25
75.498826	35
75.513089	21
75.527351	34
75.541613	36
75.555875	27
75.570137	26
75.584399	37
75.598662	35
75.612924	30
75.627186	20
75.641448	16
75.65571	28
75.669972	32
75.684235	22
75.698497	32
75.712759	29
75.727021	28
75.741283	29
75.755545	32
75.769808	25
75.78407	34
75.798332	26
75.812594	32
75.826856	34
75.841118	26
75.855381	35
75.869643	29
75.883905	23
75.898167	32
75.912429	35
75.926692	31
75.940954	29
75.955216	35
75.969478	35
75.98374	26
75.998002	30
76.012265	31
76.026527	37
76.040789	37
76.055051	33
76.069313	30
76.083576	42
76.097838	29
76.1121	29
76.126362	37
76.140624	40
76.154886	27
76.169149	31
76.183411	22
76.197673	30
76.211935	31
76.226197	35
76.24046	24
76.254722	20
76.268984	34
76.283246	23
76.297508	21
76.311771	19
76.326033	26
76.340295	25
76.354557	32
76.368819	20
76.383082	16
76.397344	18
76.411606	18
76.425868	23
76.44013	24
76.454393	20
76.468655	25
76.482917	21
76.497179	24
76.511441	20
76.525703	16
76.539966	26
76.554228	23
76.56849	10
76.582752	11
76.597014	19
76.611277	15
76.625539	14
76.639801	13
76.654063	11
76.668325	18
76.682588	14
76.69685	13
76.711112	25
76.725374	15
76.739637	21
76.753899	21
76.768161	12
76.782423	15
76.796685	16
76.810948	17
76.82521	14
76.839472	22
76.853734	19
76.867996	16
76.882259	24
76.896521	15
76.910783	22
76.925045	13
76.939307	23
76.95357	12
76.967832	15
76.982094	17
76.996356	17
77.010618	12
77.024881	19
77.039143	14
77.053405	15
77.067667	11
77.08193	14
77.096192	11
77.110454	14
77.124716	11
77.138978	11
77.153241	20
77.167503	14
77.181765	19
77.196027	13
77.210289	12
77.224552	10
77.238814	20
77.253076	17
77.267338	15
77.281601	17
77.295863	15
77.310125	9
77.324387	14
77.338649	10
77.352912	10
77.367174	17
77.381436	18
77.395698	3
77.409961	20
77.424223	14
77.438485	10
77.452747	14
77.467009	12
77.481272	18
77.495534	14
77.509796	18
77.524058	21
77.538321	14
77.552583	10
77.566845	16
77.581107	18
77.59537	13
77.609632	23
77.623894	16
77.638156	10
77.652418	8
77.666681	14
77.680943	16
77.695205	8
77.709467	16
77.72373	13
77.737992	13
77.752254	15
77.766516	18
77.780779	12
77.795041	17
77.809303	18
77.823565	12
77.837827	21
77.85209	18
77.866352	14
77.880614	15
77.894876	8
77.909139	11
77.923401	18
77.937663	11
77.951925	12
77.966188	8
77.98045	11
77.994712	16
78.008974	11
78.023237	14
78.037499	21
78.051761	15
78.066023	20
78.080286	12
78.094548	13
78.10881	18
78.123072	18
78.137335	13
78.151597	12
78.165859	15
78.180121	17
78.194384	12
78.208646	14
78.222908	12
78.23717	13
78.251433	12
78.265695	10
78.279957	12
78.294219	15
78.308482	19
78.322744	16
78.337006	10
78.351268	12
78.365531	12
78.379793	15
78.394055	13
78.408317	13
78.42258	15
78.436842	13
78.451104	14
78.465366	13
78.479629	20
78.493891	8
78.508153	18
78.522415	9
78.536678	12
78.55094	13
78.565202	19
78.579464	17
78.593727	19
78.607989	16
78.622251	9
78.636513	15
78.650776	9
78.665038	14
78.6793	13
78.693562	16
78.707825	10
78.722087	15
78.736349	9
78.750611	6
78.764874	8
78.779136	26
78.793398	15
78.807661	21
78.821923	18
78.836185	20
78.850447	17
78.86471	21
78.878972	15
78.893234	14
78.907496	9
78.921759	12
78.936021	17
78.950283	18
78.964545	16
78.978808	20
78.99307	16
79.007332	11
79.021595	11
79.035857	7
79.050119	18
79.064381	8
79.078644	18
79.092906	16
79.107168	10
79.12143	16
79.135693	12
79.149955	12
79.164217	12
79.17848	12
79.192742	21
79.207004	11
79.221266	18
79.235529	7
79.249791	10
79.264053	14
79.278316	15
79.292578	14
79.30684	9
79.321102	9
79.335365	15
79.349627	12
79.363889	15
79.378151	15
79.392414	10
79.406676	15
79.420938	13
79.435201	18
79.449463	14
79.463725	14
79.477987	11
79.49225	17
79.506512	12
79.520774	11
79.535037	10
79.549299	10
79.563561	13
79.577823	13
79.592086	25
79.606348	10
79.62061	11
79.634873	18
79.649135	23
79.663397	11
79.677659	12
79.691922	18
79.706184	21
79.720446	10
79.734709	8
79.748971	15
79.763233	18
79.777496	12
79.791758	16
79.80602	20
79.820282	13
79.834545	13
79.848807	15
79.863069	14
79.877332	13
79.891594	10
79.905856	15
79.920118	13
79.934381	16
79.948643	15
79.962905	12
79.977168	10
79.99143	9
80.005692	8
80.019955	14
80.034217	13
80.048479	13
80.062741	17
80.077004	12
80.091266	15
80.105528	14
80.119791	19
80.134053	17
80.148315	20
80.162578	11
80.17684	11
80.191102	12
80.205365	13
80.219627	16
80.233889	14
80.248151	20
80.262414	10
80.276676	8
80.290938	10
80.305201	20
80.319463	24
80.333725	9
80.347988	20
80.36225	15
80.376512	12
80.390775	19
80.405037	16
80.419299	12
80.433561	18
80.447824	17
80.462086	16
80.476348	15
80.490611	11
80.504873	12
80.519135	15
80.533398	9
80.54766	11
80.561922	11
80.576185	23
80.590447	16
80.604709	16
80.618972	16
80.633234	19
80.647496	20
80.661759	21
80.676021	15
80.690283	12
80.704546	23
80.718808	14
80.73307	17
80.747332	13
80.761595	18
80.775857	12
80.790119	20
80.804382	14
80.818644	13
80.832906	16
80.847169	14
80.861431	20
80.875693	18
80.889956	13
80.904218	16
80.91848	14
80.932743	17
80.947005	13
80.961267	11
80.97553	15
80.989792	14
81.004054	18
81.018317	14
81.032579	17
81.046841	16
81.061104	19
81.075366	17
81.089628	22
81.103891	16
81.118153	17
81.132415	15
81.146678	9
81.16094	12
81.175202	8
81.189465	15
81.203727	15
81.217989	14
81.232252	13
81.246514	17
81.260776	21
81.275039	27
81.289301	13
81.303563	12
81.317826	24
81.332088	15
81.34635	15
81.360613	18
81.374875	8
81.389137	18
81.4034	8
81.417662	17
81.431924	16
81.446187	15
81.460449	11
81.474711	14
81.488974	13
81.503236	14
81.517498	19
81.531761	15
81.546023	16
81.560285	13
81.574548	21
81.58881	18
81.603073	17
81.617335	14
81.631597	28
81.64586	19
81.660122	13
81.674384	22
81.688647	12
81.702909	22
81.717171	20
81.731434	21
81.745696	11
81.759958	16
81.774221	17
81.788483	19
81.802745	10
81.817008	18
81.83127	23
81.845532	22
81.859795	19
81.874057	14
81.88832	18
81.902582	14
81.916844	18
81.931107	14
81.945369	23
81.959631	23
81.973894	26
81.988156	17
82.002418	18
82.016681	23
82.030943	27
82.045205	14
82.059468	17
82.07373	25
82.087993	21
82.102255	23
82.116517	19
82.13078	30
82.145042	28
82.159304	23
82.173567	21
82.187829	21
82.202091	20
82.216354	35
82.230616	36
82.244879	25
82.259141	30
82.273403	28
82.287666	21
82.301928	36
82.31619	33
82.330453	30
82.344715	36
82.358977	40
82.37324	32
82.387502	33
82.401765	36
82.416027	42
82.430289	36
82.444552	35
82.458814	40
82.473076	43
82.487339	36
82.501601	31
82.515864	48
82.530126	46
82.544388	31
82.558651	35
82.572913	43
82.587175	44
82.601438	45
82.6157	44
82.629963	45
82.644225	39
82.658487	30
82.67275	28
82.687012	29
82.701274	39
82.715537	42
82.729799	32
82.744062	44
82.758324	37
82.772586	49
82.786849	51
82.801111	38
82.815373	40
82.829636	40
82.843898	42
82.858161	40
82.872423	42
82.886685	33
82.900948	44
82.91521	33
82.929472	30
82.943735	25
82.957997	31
82.97226	29
82.986522	28
83.000784	34
83.015047	31
83.029309	29
83.043572	34
83.057834	34
83.072096	23
83.086359	30
83.100621	25
83.114884	22
83.129146	22
83.143408	38
83.157671	42
83.171933	37
83.186195	29
83.200458	35
83.21472	20
83.228983	25
83.243245	18
83.257507	25
83.27177	29
83.286032	30
83.300295	23
83.314557	14
83.328819	28
83.343082	27
83.357344	32
83.371607	15
83.385869	27
83.400131	20
83.414394	22
83.428656	11
83.442919	22
83.457181	21
83.471443	14
83.485706	14
83.499968	18
83.514231	11
83.528493	19
83.542755	22
83.557018	14
83.57128	23
83.585543	19
83.599805	22
83.614067	20
83.62833	18
83.642592	19
83.656855	18
83.671117	12
83.685379	11
83.699642	18
83.713904	17
83.728167	14
83.742429	21
83.756691	12
83.770954	19
83.785216	15
83.799479	15
83.813741	18
83.828004	16
83.842266	12
83.856528	19
83.870791	11
83.885053	21
83.899316	5
83.913578	19
83.92784	17
83.942103	18
83.956365	10
83.970628	11
83.98489	11
83.999152	17
84.013415	10
84.027677	10
84.04194	13
84.056202	14
84.070465	11
84.084727	9
84.098989	12
84.113252	9
84.127514	23
84.141777	15
84.156039	17
84.170301	12
84.184564	15
84.198826	18
84.213089	20
84.227351	16
84.241614	19
84.255876	17
84.270138	12
84.284401	13
84.298663	16
84.312926	14
84.327188	11
84.341451	11
84.355713	14
84.369975	12
84.384238	14
84.3985	18
84.412763	15
84.427025	15
84.441288	12
84.45555	12
84.469812	13
84.484075	25
84.498337	11
84.5126	16
84.526862	5
84.541125	12
84.555387	8
84.569649	14
84.583912	13
84.598174	15
84.612437	8
84.626699	8
84.640962	6
84.655224	11
84.669486	17
84.683749	4
84.698011	12
84.712274	8
84.726536	20
84.740799	10
84.755061	8
84.769323	16
84.783586	11
84.797848	13
84.812111	12
84.826373	14
84.840636	14
84.854898	16
84.869161	8
84.883423	14
84.897685	17
84.911948	12
84.92621	10
84.940473	8
84.954735	16
84.968998	10
84.98326	15
84.997522	15
85.011785	11
85.026047	21
85.04031	9
85.054572	13
85.068835	11
85.083097	4
85.09736	14
85.111622	13
85.125884	15
85.140147	9
85.154409	16
85.168672	14
85.182934	14
85.197197	10
85.211459	13
85.225722	11
85.239984	11
85.254247	12
85.268509	9
85.282771	15
85.297034	7
85.311296	7
85.325559	14
85.339821	13
85.354084	10
85.368346	16
85.382609	10
85.396871	11
85.411133	6
85.425396	14
85.439658	10
85.453921	10
85.468183	11
85.482446	15
85.496708	10
85.510971	12
85.525233	13
85.539496	11
85.553758	12
85.568021	14
85.582283	11
85.596545	14
85.610808	14
85.62507	14
85.639333	9
85.653595	11
85.667858	13
85.68212	12
85.696383	8
85.710645	20
85.724908	20
85.73917	7
85.753433	11
85.767695	14
85.781957	14
85.79622	8
85.810482	10
85.824745	16
85.839007	18
85.85327	15
85.867532	17
85.881795	16
85.896057	15
85.91032	15
85.924582	20
85.938845	7
85.953107	13
85.96737	14
85.981632	13
85.995894	14
86.010157	8
86.024419	15
86.038682	18
86.052944	18
86.067207	14
86.081469	12
86.095732	15
86.109994	17
86.124257	6
86.138519	12
86.152782	17
86.167044	6
86.181307	11
86.195569	11
86.209832	8
86.224094	12
86.238357	14
86.252619	14
86.266881	8
86.281144	15
86.295406	18
86.309669	12
86.323931	14
86.338194	17
86.352456	19
86.366719	6
86.380981	12
86.395244	11
86.409506	15
86.423769	11
86.438031	17
86.452294	7
86.466556	12
86.480819	9
86.495081	12
86.509344	18
86.523606	8
86.537869	12
86.552131	14
86.566394	11
86.580656	12
86.594919	15
86.609181	11
86.623444	12
86.637706	10
86.651969	15
86.666231	11
86.680493	13
86.694756	11
86.709018	10
86.723281	13
86.737543	14
86.751806	11
86.766068	12
86.780331	10
86.794593	15
86.808856	12
86.823118	10
86.837381	16
86.851643	15
86.865906	7
86.880168	9
86.894431	14
86.908693	8
86.922956	10
86.937218	10
86.951481	11
86.965743	15
86.980006	11
86.994268	12
87.008531	10
87.022793	14
87.037056	11
87.051318	10
87.065581	14
87.079843	16
87.094106	16
87.108368	9
87.122631	11
87.136893	7
87.151156	8
87.165418	16
87.179681	15
87.193943	12
87.208206	14
87.222468	9
87.236731	15
87.250993	12
87.265256	9
87.279518	15
87.293781	13
87.308043	15
87.322306	10
87.336568	8
87.350831	12
87.365093	9
87.379356	8
87.393618	8
87.407881	10
87.422143	5
87.436406	17
87.450669	8
87.464931	12
87.479194	11
87.493456	10
87.507719	7
87.521981	13
87.536244	14
87.550506	18
87.564769	19
87.579031	7
87.593294	10
87.607556	10
87.621819	13
87.636081	11
87.650344	13
87.664606	11
87.678869	10
87.693131	10
87.707394	10
87.721656	7
87.735919	10
87.750181	10
87.764444	17
87.778706	10
87.792969	12
87.807231	13
87.821494	13
87.835756	14
87.850019	20
87.864281	10
87.878544	12
87.892807	7
87.907069	9
87.921332	16
87.935594	11
87.949857	6
87.964119	15
87.978382	11
87.992644	11
88.006907	8
88.021169	10
88.035432	13
88.049694	13
88.063957	10
88.078219	7
88.092482	7
88.106744	13
88.121007	11
88.135269	18
88.149532	10
88.163795	7
88.178057	14
88.19232	9
88.206582	12
88.220845	21
88.235107	11
88.24937	13
88.263632	11
88.277895	13
88.292157	12
88.30642	13
88.320682	15
88.334945	10
88.349207	20
88.36347	12
88.377733	15
88.391995	7
88.406258	14
88.42052	12
88.434783	11
88.449045	14
88.463308	15
88.47757	11
88.491833	14
88.506095	11
88.520358	11
88.53462	13
88.548883	10
88.563146	11
88.577408	10
88.591671	7
88.605933	14
88.620196	11
88.634458	12
88.648721	9
88.662983	9
88.677246	12
88.691508	11
88.705771	8
88.720034	14
88.734296	10
88.748559	11
88.762821	10
88.777084	8
88.791346	17
88.805609	7
88.819871	8
88.834134	11
88.848396	8
88.862659	8
88.876922	12
88.891184	28
88.905447	7
88.919709	9
88.933972	14
88.948234	16
88.962497	11
88.976759	12
88.991022	12
89.005285	14
89.019547	5
89.03381	16
89.048072	7
89.062335	11
89.076597	6
89.09086	11
89.105122	20
89.119385	17
89.133647	17
89.14791	12
89.162173	11
89.176435	11
89.190698	10
89.20496	6
89.219223	13
89.233485	18
89.247748	16
89.262011	11
89.276273	12
89.290536	15
89.304798	13
89.319061	11
89.333323	13
89.347586	11
89.361848	13
89.376111	9
89.390374	16
89.404636	14
89.418899	19
89.433161	9
89.447424	16
89.461686	8
89.475949	10
89.490212	20
89.504474	18
89.518737	16
89.532999	12
89.547262	17
89.561524	14
89.575787	15
89.59005	21
89.604312	16
89.618575	16
89.632837	9
89.6471	14
89.661362	15
89.675625	11
89.689888	13
89.70415	12
89.718413	18
89.732675	17
89.746938	19
89.7612	13
89.775463	15
89.789726	17
89.803988	15
89.818251	13
89.832513	11
89.846776	14
89.861038	10
89.875301	8
89.889564	16
89.903826	15
89.918089	8
89.932351	15
89.946614	11
89.960876	11
89.975139	12
89.989402	7
90.003664	11
90.017927	16
90.032189	10
90.046452	10
90.060714	10
90.074977	13
90.08924	12
90.103502	19
90.117765	9
90.132027	13
90.14629	12
90.160553	11
90.174815	12
90.189078	10
90.20334	8
90.217603	10
90.231866	14
90.246128	7
90.260391	13
90.274653	9
90.288916	14
90.303178	12
90.317441	8
90.331704	17
90.345966	18
90.360229	19
90.374491	11
90.388754	12
90.403017	18
90.417279	14
90.431542	11
90.445804	14
90.460067	12
90.47433	13
90.488592	11
90.502855	18
90.517117	10
90.53138	12
90.545642	13
90.559905	12
90.574168	13
90.58843	9
90.602693	15
90.616955	15
90.631218	11
90.645481	20
90.659743	19
90.674006	12
90.688268	15
90.702531	11
90.716794	13
90.731056	15
90.745319	7
90.759581	12
90.773844	8
90.788107	10
90.802369	14
90.816632	15
90.830894	12
90.845157	9
90.85942	8
90.873682	11
90.887945	13
90.902207	12
90.91647	11
90.930733	8
90.944995	10
90.959258	15
90.973521	16
90.987783	11
91.002046	14
91.016308	11
91.030571	11
91.044834	10
91.059096	14
91.073359	10
91.087621	9
91.101884	16
91.116147	10
91.130409	10
91.144672	16
91.158934	17
91.173197	16
91.18746	10
91.201722	5
91.215985	11
91.230247	11
91.24451	13
91.258773	15
91.273035	10
91.287298	13
91.301561	15
91.315823	12
91.330086	5
91.344348	10
91.358611	13
91.372874	8
91.387136	13
91.401399	9
91.415661	17
91.429924	11
91.444187	9
91.458449	7
91.472712	10
91.486975	9
91.501237	12
91.5155	18
91.529762	4
91.544025	13
91.558288	16
91.57255	14
91.586813	12
91.601076	16
91.615338	10
91.629601	13
91.643863	9
91.658126	5
91.672389	10
91.686651	7
91.700914	13
91.715177	16
91.729439	15
91.743702	9
91.757964	15
91.772227	14
91.78649	9
91.800752	7
91.815015	8
91.829278	12
91.84354	15
91.857803	10
91.872065	16
91.886328	10
91.900591	15
91.914853	13
91.929116	7
91.943379	10
91.957641	16
91.971904	10
91.986166	9
92.000429	10
92.014692	8
92.028954	11
92.043217	7
92.05748	10
92.071742	12
92.086005	9
92.100268	6
92.11453	8
92.128793	12
92.143055	12
92.157318	9
92.171581	9
92.185843	17
92.200106	7
92.214369	16
92.228631	11
92.242894	13
92.257157	8
92.271419	10
92.285682	10
92.299945	16
92.314207	11
92.32847	12
92.342732	14
92.356995	8
92.371258	9
92.38552	9
92.399783	12
92.414046	15
92.428308	12
92.442571	9
92.456834	13
92.471096	14
92.485359	14
92.499622	17
92.513884	10
92.528147	15
92.542409	10
92.556672	12
92.570935	6
92.585197	12
92.59946	10
92.613723	17
92.627985	11
92.642248	12
92.656511	13
92.670773	15
92.685036	12
92.699299	10
92.713561	10
92.727824	16
92.742087	10
92.756349	13
92.770612	8
92.784875	16
92.799137	10
92.8134	13
92.827662	18
92.841925	16
92.856188	14
92.87045	16
92.884713	12
92.898976	12
92.913238	12
92.927501	20
92.941764	5
92.956026	7
92.970289	15
92.984552	13
92.998814	12
93.013077	16
93.02734	13
93.041602	18
93.055865	15
93.070128	13
93.08439	14
93.098653	13
93.112916	13
93.127178	11
93.141441	22
93.155704	15
93.169966	13
93.184229	15
93.198492	16
93.212754	18
93.227017	13
93.24128	29
93.255542	18
93.269805	14
93.284068	12
93.29833	19
93.312593	16
93.326856	15
93.341118	17
93.355381	9
93.369644	11
93.383906	15
93.398169	21
93.412432	18
93.426694	12
93.440957	18
93.45522	10
93.469482	7
93.483745	10
93.498008	12
93.51227	13
93.526533	19
93.540796	22
93.555058	12
93.569321	17
93.583584	11
93.597846	19
93.612109	17
93.626372	13
93.640634	17
93.654897	17
93.66916	18
93.683422	19
93.697685	20
93.711948	13
93.726211	11
93.740473	15
93.754736	16
93.768999	19
93.783261	15
93.797524	19
93.811787	19
93.826049	13
93.840312	10
93.854575	18
93.868837	24
93.8831	16
93.897363	16
93.911625	22
93.925888	21
93.940151	23
93.954413	19
93.968676	16
93.982939	10
93.997201	23
94.011464	25
94.025727	23
94.03999	18
94.054252	22
94.068515	27
94.082778	28
94.09704	18
94.111303	16
94.125566	27
94.139828	22
94.154091	20
94.168354	24
94.182616	25
94.196879	23
94.211142	23
94.225404	18
94.239667	23
94.25393	28
94.268193	28
94.282455	13
94.296718	22
94.310981	25
94.325243	24
94.339506	25
94.353769	21
94.368031	23
94.382294	22
94.396557	18
94.410819	24
94.425082	31
94.439345	22
94.453608	24
94.46787	24
94.482133	20
94.496396	28
94.510658	23
94.524921	21
94.539184	16
94.553446	16
94.567709	21
94.581972	18
94.596235	13
94.610497	15
94.62476	21
94.639023	23
94.653285	21
94.667548	21
94.681811	33
94.696073	22
94.710336	17
94.724599	19
94.738862	22
94.753124	16
94.767387	18
94.78165	24
94.795912	23
94.810175	19
94.824438	36
94.838701	32
94.852963	25
94.867226	23
94.881489	23
94.895751	24
94.910014	32
94.924277	16
94.93854	21
94.952802	14
94.967065	35
94.981328	36
94.99559	31
95.009853	27
95.024116	22
95.038378	21
95.052641	27
95.066904	31
95.081167	38
95.095429	24
95.109692	24
95.123955	33
95.138217	26
95.15248	34
95.166743	28
95.181006	32
95.195268	25
95.209531	29
95.223794	21
95.238056	32
95.252319	29
95.266582	32
95.280845	22
95.295107	18
95.30937	26
95.323633	25
95.337896	16
95.352158	28
95.366421	17
95.380684	26
95.394946	22
95.409209	25
95.423472	21
95.437735	24
95.451997	25
95.46626	19
95.480523	22
95.494785	29
95.509048	20
95.523311	14
95.537574	19
95.551836	16
95.566099	16
95.580362	17
95.594625	19
95.608887	14
95.62315	9
95.637413	18
95.651675	14
95.665938	16
95.680201	13
95.694464	15
95.708726	15
95.722989	21
95.737252	10
95.751515	16
95.765777	11
95.78004	11
95.794303	22
95.808565	18
95.822828	18
95.837091	20
95.851354	13
95.865616	16
95.879879	11
95.894142	28
95.908405	13
95.922667	15
95.93693	15
95.951193	21
95.965456	14
95.979718	14
95.993981	20
96.008244	19
96.022507	13
96.036769	20
96.051032	5
96.065295	20
96.079557	15
96.09382	16
96.108083	27
96.122346	13
96.136608	13
96.150871	12
96.165134	10
96.179397	9
96.193659	19
96.207922	11
96.222185	18
96.236448	16
96.25071	17
96.264973	24
96.279236	22
96.293499	14
96.307761	9
96.322024	13
96.336287	21
96.35055	9
96.364812	18
96.379075	19
96.393338	11
96.407601	11
96.421863	15
96.436126	12
96.450389	10
96.464652	12
96.478914	16
96.493177	13
96.50744	13
96.521703	13
96.535965	10
96.550228	14
96.564491	18
96.578754	17
96.593016	16
96.607279	8
96.621542	9
96.635805	19
96.650067	9
96.66433	17
96.678593	11
96.692856	10
96.707118	11
96.721381	9
96.735644	13
96.749907	10
96.764169	17
96.778432	10
96.792695	11
96.806958	18
96.82122	23
96.835483	12
96.849746	16
96.864009	20
96.878271	9
96.892534	8
96.906797	14
96.92106	14
96.935322	16
96.949585	15
96.963848	9
96.978111	16
96.992373	12
97.006636	17
97.020899	10
97.035162	12
97.049425	15
97.063687	14
97.07795	13
97.092213	16
97.106476	9
97.120738	13
97.135001	10
97.149264	7
97.163527	9
97.177789	15
97.192052	11
97.206315	10
97.220578	16
97.23484	6
97.249103	10
97.263366	10
97.277629	9
97.291892	16
97.306154	9
97.320417	17
97.33468	14
97.348943	20
97.363205	14
97.377468	16
97.391731	13
97.405994	15
97.420257	8
97.434519	10
97.448782	9
97.463045	11
97.477308	15
97.49157	7
97.505833	18
97.520096	12
97.534359	18
97.548621	12
97.562884	13
97.577147	8
97.59141	14
97.605673	16
97.619935	10
97.634198	10
97.648461	8
97.662724	10
97.676986	14
97.691249	9
97.705512	11
97.719775	13
97.734038	15
97.7483	17
97.762563	12
97.776826	17
97.791089	12
97.805352	12
97.819614	14
97.833877	8
97.84814	14
97.862403	21
97.876665	16
97.890928	11
97.905191	13
97.919454	10
97.933717	8
97.947979	15
97.962242	20
97.976505	12
97.990768	15
98.00503	17
98.019293	16
98.033556	16
98.047819	20
98.062082	18
98.076344	13
98.090607	12
98.10487	16
98.119133	18
98.133396	20
98.147658	15
98.161921	20
98.176184	15
98.190447	22
98.20471	21
98.218972	20
98.233235	14
98.247498	15
98.261761	19
98.276024	12
98.290286	18
98.304549	24
98.318812	16
98.333075	13
98.347337	18
98.3616	18
98.375863	18
98.390126	17
98.404389	27
98.418651	16
98.432914	23
98.447177	20
98.46144	20
98.475703	13
98.489965	18
98.504228	24
98.518491	20
98.532754	16
98.547017	16
98.561279	20
98.575542	15
98.589805	17
98.604068	19
98.618331	17
98.632593	11
98.646856	10
98.661119	17
98.675382	21
98.689645	19
98.703908	20
98.71817	11
98.732433	17
98.746696	15
98.760959	16
98.775222	16
98.789484	12
98.803747	13
98.81801	19
98.832273	15
98.846536	9
98.860798	17
98.875061	15
98.889324	15
98.903587	15
98.91785	22
98.932112	8
98.946375	18
98.960638	13
98.974901	5
98.989164	16
99.003426	12
99.017689	19
99.031952	14
99.046215	21
99.060478	12
99.074741	5
99.089003	7
99.103266	12
99.117529	13
99.131792	14
99.146055	21
99.160317	10
99.17458	16
99.188843	14
99.203106	18
99.217369	15
99.231632	16
99.245894	15
99.260157	15
99.27442	8
99.288683	18
99.302946	15
99.317208	10
99.331471	12
99.345734	20
99.359997	18
99.37426	18
99.388523	20
99.402785	14
99.417048	15
99.431311	8
99.445574	20
99.459837	11
99.474099	23
99.488362	15
99.502625	20
99.516888	15
99.531151	14
99.545414	15
99.559676	11
99.573939	21
99.588202	14
99.602465	14
99.616728	18
99.630991	7
99.645253	16
99.659516	18
99.673779	22
99.688042	15
99.702305	18
99.716568	12
99.73083	19
99.745093	14
99.759356	27
99.773619	13
99.787882	9
99.802145	12
99.816407	19
99.83067	9
99.844933	14
99.859196	19
99.873459	14
99.887722	13
99.901984	20
99.916247	17
99.93051	16
99.944773	13
99.959036	10
99.973299	17
99.987561	14
100.001824	21
100.016087	14
100.03035	18
100.044613	20
100.058876	17
100.073138	17
100.087401	24
100.101664	9
100.115927	13
100.13019	14
100.144453	12
100.158715	19
100.172978	23
100.187241	14
100.201504	8
100.215767	16
100.23003	12
100.244292	12
100.258555	17
100.272818	16
100.287081	20
100.301344	24
100.315607	12
100.32987	9
100.344132	9
100.358395	14
100.372658	12
100.386921	18
100.401184	16
100.415447	14
100.429709	15
100.443972	15
100.458235	19
100.472498	11
100.486761	17
100.501024	12
100.515287	12
100.529549	18
100.543812	9
100.558075	8
100.572338	23
100.586601	9
100.600864	15
100.615126	10
100.629389	18
100.643652	18
100.657915	15
100.672178	18
100.686441	8
100.700704	8
100.714966	16
100.729229	22
100.743492	12
100.757755	16
100.772018	13
100.786281	8
100.800544	9
100.814806	16
100.829069	6
100.843332	21
100.857595	22
100.871858	12
100.886121	10
100.900384	16
100.914646	12
100.928909	9
100.943172	19
100.957435	13
100.971698	15
100.985961	17
101.000224	10
101.014486	17
101.028749	19
101.043012	15
101.057275	18
101.071538	18
101.085801	14
101.100064	16
101.114327	11
101.128589	19
101.142852	18
101.157115	14
101.171378	13
101.185641	12
101.199904	8
101.214167	13
101.228429	18
101.242692	18
101.256955	18
101.271218	10
101.285481	15
101.299744	13
101.314007	19
101.32827	15
101.342532	12
101.356795	10
101.371058	17
101.385321	11
101.399584	14
101.413847	14
101.42811	15
101.442372	12
101.456635	23
101.470898	14
101.485161	14
101.499424	21
101.513687	18
101.52795	9
101.542213	13
101.556475	20
101.570738	18
101.585001	14
101.599264	14
101.613527	12
101.62779	9
101.642053	11
101.656316	11
101.670578	17
101.684841	13
101.699104	15
101.713367	8
101.72763	10
101.741893	10
101.756156	13
101.770419	22
101.784681	11
101.798944	8
101.813207	17
101.82747	18
101.841733	14
101.855996	21
101.870259	5
101.884522	24
101.898785	15
101.913047	17
101.92731	16
101.941573	14
101.955836	9
101.970099	15
101.984362	9
101.998625	13
102.012888	16
102.02715	20
102.041413	16
102.055676	15
102.069939	10
102.084202	10
102.098465	12
102.112728	17
102.126991	11
102.141254	7
102.155516	8
102.169779	13
102.184042	8
102.198305	11
102.212568	14
102.226831	15
102.241094	11
102.255357	11
102.26962	14
102.283882	15
102.298145	13
102.312408	13
102.326671	14
102.340934	5
102.355197	12
102.36946	6
102.383723	10
102.397986	17
102.412249	12
102.426511	15
102.440774	16
102.455037	16
102.4693	18
102.483563	13
102.497826	10
102.512089	11
102.526352	13
102.540615	14
102.554877	11
102.56914	12
102.583403	12
102.597666	11
102.611929	10
102.626192	11
102.640455	7
102.654718	15
102.668981	4
102.683244	20
102.697506	16
102.711769	17
102.726032	16
102.740295	5
102.754558	13
102.768821	9
102.783084	7
102.797347	6
102.81161	11
102.825873	10
102.840136	6
102.854398	10
102.868661	13
102.882924	14
102.897187	8
102.91145	11
102.925713	15
102.939976	12
102.954239	20
102.968502	10
102.982765	11
102.997027	7
103.01129	14
103.025553	11
103.039816	14
103.054079	12
103.068342	10
103.082605	12
103.096868	9
103.111131	13
103.125394	17
103.139657	13
103.15392	10
103.168182	10
103.182445	9
103.196708	17
103.210971	11
103.225234	9
103.239497	13
103.25376	13
103.268023	11
103.282286	7
103.296549	7
103.310812	18
103.325074	8
103.339337	8
103.3536	9
103.367863	7
103.382126	14
103.396389	11
103.410652	12
103.424915	19
103.439178	5
103.453441	12
103.467704	12
103.481967	14
103.496229	7
103.510492	11
103.524755	10
103.539018	8
103.553281	7
103.567544	6
103.581807	10
103.59607	7
103.610333	12
103.624596	9
103.638859	18
103.653122	7
103.667385	11
103.681647	16
103.69591	9
103.710173	9
103.724436	9
103.738699	12
103.752962	9
103.767225	14
103.781488	15
103.795751	16
103.810014	11
103.824277	15
103.83854	13
103.852803	17
103.867066	13
103.881328	14
103.895591	13
103.909854	18
103.924117	17
103.93838	10
103.952643	6
103.966906	14
103.981169	9
103.995432	12
104.009695	13
104.023958	11
104.038221	9
104.052484	12
104.066747	9
104.08101	11
104.095272	8
104.109535	11
104.123798	5
104.138061	13
104.152324	10
104.166587	11
104.18085	9
104.195113	14
104.209376	13
104.223639	9
104.237902	5
104.252165	14
104.266428	10
104.280691	17
104.294954	10
104.309217	11
104.323479	11
104.337742	15
104.352005	7
104.366268	6
104.380531	8
104.394794	21
104.409057	21
104.42332	9
104.437583	15
104.451846	14
104.466109	8
104.480372	10
104.494635	14
104.508898	9
104.523161	13
104.537424	10
104.551687	8
104.565949	8
104.580212	8
104.594475	12
104.608738	15
104.623001	9
104.637264	12
104.651527	16
104.66579	12
104.680053	11
104.694316	15
104.708579	11
104.722842	8
104.737105	9
104.751368	15
104.765631	13
104.779894	13
104.794157	18
104.80842	12
104.822683	13
104.836945	11
104.851208	15
104.865471	8
104.879734	14
104.893997	11
104.90826	12
104.922523	11
104.936786	15
104.951049	6
104.965312	13
104.979575	11
104.993838	4
105.008101	9
105.022364	16
105.036627	13
105.05089	10
105.065153	11
105.079416	8
105.093679	13
105.107942	19
105.122205	17
105.136468	9
105.150731	7
105.164993	9
105.179256	8
105.193519	11
105.207782	16
105.222045	11
105.236308	21
105.250571	10
105.264834	9
105.279097	11
105.29336	15
105.307623	19
105.321886	15
105.336149	12
105.350412	6
105.364675	13
105.378938	11
105.393201	9
105.407464	11
105.421727	14
105.43599	14
105.450253	17
105.464516	9
105.478779	11
105.493042	12
105.507305	8
105.521568	13
105.535831	16
105.550093	10
105.564356	12
105.578619	16
105.592882	22
105.607145	19
105.621408	15
105.635671	15
105.649934	13
105.664197	4
105.67846	4
105.692723	12
105.706986	8
105.721249	11
105.735512	13
105.749775	11
105.764038	13
105.778301	11
105.792564	17
105.806827	13
105.82109	16
105.835353	16
105.849616	12
105.863879	15
105.878142	17
105.892405	12
105.906668	11
105.920931	15
105.935194	17
105.949457	13
105.96372	12
105.977983	11
105.992246	14
106.006509	17
106.020772	12
106.035035	19
106.049298	9
106.063561	11
106.077824	13
106.092087	11
106.106349	16
106.120612	7
106.134875	11
106.149138	12
106.163401	17
106.177664	14
106.191927	9
106.20619	15
106.220453	13
106.234716	8
106.248979	15
106.263242	19
106.277505	15
106.291768	17
106.306031	14
106.320294	10
106.334557	9
106.34882	13
106.363083	12
106.377346	12
106.391609	18
106.405872	9
106.420135	13
106.434398	12
106.448661	16
106.462924	16
106.477187	15
106.49145	12
106.505713	8
106.519976	16
106.534239	11
106.548502	18
106.562765	17
106.577028	13
106.591291	18
106.605554	17
106.619817	12
106.63408	16
106.648343	9
106.662606	10
106.676869	17
106.691132	13
106.705395	13
106.719658	12
106.733921	16
106.748184	13
106.762447	12
106.77671	11
106.790973	14
106.805236	14
106.819499	20
106.833762	11
106.848025	14
106.862288	16
106.876551	19
106.890814	15
106.905077	14
106.91934	14
106.933603	15
106.947866	13
106.962129	11
106.976392	18
106.990655	18
107.004918	20
107.019181	13
107.033444	24
107.047707	18
107.06197	21
107.076233	23
107.090496	22
107.104759	20
107.119022	18
107.133285	25
107.147548	15
107.161811	16
107.176074	21
107.190337	19
107.2046	15
107.218863	21
107.233126	33
107.247389	10
107.261652	22
107.275915	28
107.290178	15
107.304441	31
107.318704	17
107.332967	23
107.34723	24
107.361493	32
107.375756	22
107.390019	23
107.404282	30
107.418545	25
107.432808	21
107.447071	22
107.461334	23
107.475597	29
107.48986	23
107.504123	21
107.518386	25
107.532649	19
107.546912	29
107.561175	17
107.575438	22
107.589701	22
107.603964	30
107.618227	25
107.63249	18
107.646753	34
107.661016	26
107.675279	19
107.689542	19
107.703805	21
107.718068	25
107.732331	27
107.746594	26
107.760857	30
107.77512	26
107.789383	23
107.803647	23
107.81791	22
107.832173	19
107.846436	20
107.860699	21
107.874962	21
107.889225	28
107.903488	16
107.917751	13
107.932014	28
107.946277	19
107.96054	25
107.974803	15
107.989066	17
108.003329	18
108.017592	21
108.031855	25
108.046118	16
108.060381	20
108.074644	20
108.088907	18
108.10317	17
108.117433	18
108.131696	25
108.145959	13
108.160222	16
108.174485	10
108.188748	17
108.203011	16
108.217274	20
108.231537	11
108.2458	18
108.260063	19
108.274326	16
108.288589	18
108.302852	13
108.317115	25
108.331378	12
108.345641	9
108.359905	19
108.374168	20
108.388431	24
108.402694	11
108.416957	13
108.43122	14
108.445483	11
108.459746	21
108.474009	5
108.488272	24
108.502535	22
108.516798	17
108.531061	20
108.545324	21
108.559587	18
108.57385	22
108.588113	22
108.602376	20
108.616639	17
108.630902	15
108.645165	18
108.659428	17
108.673691	27
108.687954	18
108.702217	12
108.71648	11
108.730743	28
108.745006	16
108.75927	23
108.773533	15
108.787796	19
108.802059	22
108.816322	18
108.830585	20
108.844848	17
108.859111	19
108.873374	21
108.887637	19
108.9019	12
108.916163	27
108.930426	18
108.944689	20
108.958952	21
108.973215	22
108.987478	23
109.001741	27
109.016004	15
109.030267	16
109.04453	18
109.058793	22
109.073056	28
109.08732	13
109.101583	16
109.115846	15
109.130109	21
109.144372	18
109.158635	18
109.172898	17
109.187161	19
109.201424	17
109.215687	20
109.22995	21
109.244213	11
109.258476	22
109.272739	24
109.287002	17
109.301265	20
109.315528	15
109.329791	6
109.344054	13
109.358317	20
109.372581	16
109.386844	14
109.401107	12
109.41537	15
109.429633	11
109.443896	13
109.458159	20
109.472422	15
109.486685	14
109.500948	15
109.515211	9
109.529474	12
109.543737	9
109.558	8
109.572263	16
109.586526	14
109.600789	13
109.615053	13
109.629316	10
109.643579	19
109.657842	21
109.672105	16
109.686368	19
109.700631	15
109.714894	10
109.729157	20
109.74342	16
109.757683	19
109.771946	13
109.786209	9
109.800472	20
109.814735	16
109.828998	15
109.843262	21
109.857525	16
109.871788	10
109.886051	15
109.900314	11
109.914577	16
109.92884	12
109.943103	10
109.957366	15
109.971629	15
109.985892	20
